RR_l_0;RR_l_0/RR_l_1;RR_l_1;RR_l_1/RR_l_2;RR_l_2;RR_l_2/RR_l_3;RR_l_3;RR_l_3/RR_l_4;RR_r_0;RR_r_0/RR_r_1;RR_r_1;RR_r_1/RR_r_2;RR_r_2;RR_r_2/RR_r_3;RR_r_3;RR_r_3/RR_r_4;seq_size;signal_mean;signal_std;wl_side;wr_side;P_val;Q_val;R_val;S_val;T_val;P_pos;Q_pos;R_pos;S_pos;T_pos;label
163.0;1.0061728395061729;162.0;1.0062111801242235;161.0;1.0254777070063694;157.0;1.0328947368421053;160.0;1.019108280254777;157.0;1.0064102564102564;156.0;0.9811320754716981;159.0;1.0127388535031847;229.0;-0.2580165380766535;0.19838568204507448;117.0;112.0;-0.1623088873590639;-0.4785594279680523;1.2007186183888374;-0.3648867919326396;-0.23429500657838995;0.385;0.485;0.515;0.535;0.82;0.0
162.0;1.0062111801242235;161.0;1.0254777070063694;157.0;1.0328947368421053;152.0;0.9934640522875817;157.0;1.0064102564102564;156.0;0.9811320754716981;159.0;1.0127388535031847;157.0;0.9515151515151515;221.0;-0.2466176791413588;0.1560434518735938;112.0;109.0;-0.13482949701749183;-0.43503540295597165;1.0388920232619019;-0.35616828357488445;-0.22017927928982825;0.39;0.49;0.51;0.53;0.875;0.0
161.0;1.0254777070063694;157.0;1.0328947368421053;152.0;0.9934640522875817;153.0;0.9935064935064936;156.0;0.9811320754716981;159.0;1.0127388535031847;157.0;0.9515151515151515;165.0;1.0060975609756098;218.0;-0.2471558513015812;0.1432319246845176;109.0;109.0;-0.12364371106301493;-0.4124861471965757;0.9455644344609948;-0.37337737784680536;-0.2096839823842101;0.335;0.48;0.5;0.52;0.81;0.0
157.0;1.0328947368421053;152.0;0.9934640522875817;153.0;0.9935064935064936;154.0;0.9625;159.0;1.0127388535031847;157.0;0.9515151515151515;165.0;1.0060975609756098;164.0;0.9704142011834319;220.0;-0.2385546002576475;0.15165720901821653;109.0;111.0;-0.15893267439914;-0.39885937172463753;0.9264061286359375;-0.3449948106128147;-0.15936771532912908;0.355;0.475;0.495;0.52;0.79;0.0
152.0;0.9934640522875817;153.0;0.9935064935064936;154.0;0.9625;160.0;0.9523809523809523;157.0;0.9515151515151515;165.0;1.0060975609756098;164.0;0.9704142011834319;169.0;1.0696202531645569;220.0;-0.17527994269887986;0.19106280894530825;111.0;109.0;-0.04054931320330662;-0.3781266361659097;1.2067140909881016;-0.25072878000723586;-0.12774601363205473;0.38;0.48;0.505;0.53;0.835;0.0
153.0;;154.0;0.9625;160.0;0.9523809523809523;168.0;1.0;165.0;1.0060975609756098;164.0;0.9704142011834319;169.0;1.0696202531645569;158.0;1.0063694267515924;224.0;-0.19780788668366575;0.1627347123425917;109.0;115.0;-0.07290977110020117;-0.4018625606275886;1.1309722796575914;-0.29648641784430724;-0.17388260369958106;0.365;0.465;0.49;0.51;0.795;0.0
154.0;0.9625;160.0;0.9523809523809523;168.0;1.0;168.0;1.05;164.0;0.9704142011834319;169.0;1.0696202531645569;158.0;1.0063694267515924;157.0;1.0328947368421053;229.0;-0.2565542233753408;0.15057233590403785;115.0;114.0;-0.12120684700452136;-0.42720453331889197;0.971785011704756;-0.3676579719658686;-0.25403780827749434;0.335;0.485;0.505;0.525;0.835;0.0
160.0;0.9523809523809523;168.0;1.0;168.0;1.05;160.0;1.019108280254777;169.0;1.0696202531645569;158.0;1.0063694267515924;157.0;1.0328947368421053;152.0;0.9212121212121213;232.0;-0.30577614617522303;0.15371618616690375;114.0;118.0;-0.22117653066783202;-0.5230704225756563;0.903644917490465;-0.42176424420712577;-0.24290773481035777;0.365;0.47;0.49;0.515;0.85;0.0
168.0;1.0;168.0;1.05;160.0;1.019108280254777;157.0;1.0064102564102564;158.0;1.0063694267515924;157.0;1.0328947368421053;152.0;0.9212121212121213;165.0;1.0;228.0;-0.26510775385166857;0.16924685306419174;118.0;110.0;-0.12182065310757403;-0.45742389020529034;1.0518613436246962;-0.3872154116674685;-0.20937146562011838;0.395;0.495;0.515;0.535;0.86;0.0
168.0;1.05;160.0;1.019108280254777;157.0;1.0064102564102564;156.0;0.9811320754716981;157.0;1.0328947368421053;152.0;0.9212121212121213;165.0;1.0;165.0;1.0248447204968945;219.0;-0.23381871068988427;0.14857334034828568;110.0;109.0;-0.11571382504344974;-0.3861994848830139;0.9309535701580118;-0.32264084753884215;-0.17781114658574937;0.385;0.485;0.505;0.53;0.805;0.0
160.0;1.019108280254777;157.0;1.0064102564102564;156.0;0.9811320754716981;159.0;1.0127388535031847;152.0;0.9212121212121213;165.0;1.0;165.0;1.0248447204968945;161.0;0.9877300613496932;215.0;-0.2575620064344097;0.1425783494009021;109.0;106.0;-0.13490954033556612;-0.45458119796863716;0.8848243462458325;-0.3852825665500285;-0.22371362108075987;0.38;0.485;0.505;0.525;0.815;0.0
157.0;1.0064102564102564;156.0;0.9811320754716981;159.0;1.0127388535031847;157.0;0.9515151515151515;165.0;1.0;165.0;1.0248447204968945;161.0;0.9877300613496932;163.0;1.0061728395061729;221.0;-0.29543903734782245;0.15099826006207895;106.0;115.0;-0.20629931324847367;-0.5115301817930151;0.9301354745000813;-0.4181961942574844;-0.24722482308873167;0.365;0.46;0.485;0.505;0.8;0.0
156.0;0.9811320754716981;159.0;1.0127388535031847;157.0;0.9515151515151515;165.0;1.0060975609756098;165.0;1.0248447204968945;161.0;0.9877300613496932;163.0;1.0061728395061729;162.0;1.0253164556962024;230.0;-0.2766281922665836;0.20734808660491727;115.0;115.0;-0.16341975432637418;-0.4648183324909889;1.1636542499384621;-0.37480423320627876;-0.26004838981747536;0.385;0.475;0.505;0.525;0.83;0.0
159.0;1.0127388535031847;157.0;0.9515151515151515;165.0;1.0060975609756098;164.0;0.9704142011834319;161.0;0.9877300613496932;163.0;1.0061728395061729;162.0;1.0253164556962024;158.0;1.0193548387096774;227.0;-0.278166382078532;0.19355628358534907;115.0;112.0;-0.18263809020495939;-0.49090840886057585;1.110458160467811;-0.3630464476402144;-0.24;0.38;0.48;0.515;0.535;0.85;0.0
157.0;0.9515151515151515;;1.0060975609756098;164.0;0.9704142011834319;169.0;1.0696202531645569;163.0;1.0061728395061729;162.0;1.0253164556962024;158.0;1.0193548387096774;155.0;1.0;226.0;-0.30125468652237236;0.16359945165298553;112.0;114.0;-0.1915503909911153;-0.45429621592615044;0.9169991508896183;-0.5050172564185627;-0.2774858627592962;0.375;0.475;0.495;0.52;0.805;0.0
165.0;1.0060975609756098;164.0;0.9704142011834319;169.0;1.0696202531645569;158.0;1.0063694267515924;162.0;1.0253164556962024;158.0;1.0193548387096774;155.0;1.0;155.0;0.96875;227.0;-0.3059482414084864;0.1542185981442772;114.0;113.0;-0.19531512707816376;-0.435515042709281;0.9529385165596943;-0.42421114540838567;-0.24515206163913306;0.345;0.485;0.505;0.525;0.84;0.0
164.0;0.9704142011834319;169.0;1.0696202531645569;158.0;1.0063694267515924;157.0;1.0328947368421053;158.0;1.0193548387096774;155.0;1.0;155.0;0.96875;160.0;0.9580838323353293;223.0;-0.2893007823239454;0.16633963290775633;113.0;110.0;-0.15746450655683428;-0.4886920195434743;1.0509083048410237;-0.3642208477386509;-0.24972022202440186;0.385;0.485;0.51;0.53;0.845;0.0
169.0;1.0696202531645569;158.0;1.0063694267515924;157.0;;152.0;0.9212121212121213;155.0;1.0;155.0;0.96875;160.0;0.9580838323353293;167.0;1.0060240963855422;218.0;-0.2991508793840703;0.15109651527766024;110.0;108.0;-0.16798223695206482;-0.5210126835123681;0.9446008661933629;-0.4019512939744465;-0.2726168755250591;0.385;0.485;0.51;0.53;0.855;0.0
158.0;1.0063694267515924;157.0;1.0328947368421053;152.0;0.9212121212121213;165.0;1.0;155.0;0.96875;160.0;0.9580838323353293;167.0;1.0060240963855422;166.0;1.0506329113924051;216.0;-0.3167997720149453;0.14595223122098297;108.0;108.0;-0.1883775546457994;-0.5101222004158142;0.8730536278834946;-0.46229418621694307;-0.28533920979129146;0.385;0.48;0.5;0.52;0.85;0.0
157.0;1.0328947368421053;152.0;0.9212121212121213;165.0;1.0;165.0;1.0248447204968945;160.0;0.9580838323353293;167.0;1.0060240963855422;166.0;1.0506329113924051;158.0;0.9937106918238994;220.0;-0.34373072039621533;0.15173438580009194;108.0;112.0;-0.26205699526764803;-0.5297252934759693;0.8650735931675652;-0.5189445147422734;-0.31632642019940616;0.36;0.47;0.49;0.51;0.87;0.0
152.0;0.9212121212121213;165.0;1.0;165.0;1.0248447204968945;161.0;0.9877300613496932;167.0;1.0060240963855422;166.0;1.0506329113924051;158.0;0.9937106918238994;159.0;1.0392156862745099;228.0;-0.3124445042002612;0.16339476109398157;112.0;116.0;-0.18058038982727997;-0.5048965878462965;1.0050202638180536;-0.3682398715104971;-0.2605999431765282;0.375;0.47;0.495;0.515;0.815;0.0
165.0;1.0;165.0;1.0248447204968945;161.0;0.9877300613496932;163.0;1.0061728395061729;166.0;1.0506329113924051;158.0;0.9937106918238994;159.0;1.0392156862745099;153.0;0.9683544303797469;232.0;-0.295397499944699;0.1577108602836379;116.0;116.0;-0.18610784140854292;-0.4731757562853815;0.947683191385412;-0.3813932745300504;-0.25766591826892105;0.38;0.48;0.505;0.525;0.86;0.0
165.0;1.0248447204968945;161.0;0.9877300613496932;163.0;1.0061728395061729;162.0;;158.0;0.9937106918238994;159.0;1.0392156862745099;153.0;0.9683544303797469;158.0;1.0193548387096774;226.0;-0.2912303888684209;0.1451341399095425;116.0;110.0;-0.16706886553041914;-0.5094115223473831;0.872925236561735;-0.4457741105900486;-0.2556884158822969;0.385;0.49;0.515;0.535;0.84;0.0
161.0;0.9877300613496932;163.0;1.0061728395061729;162.0;1.0253164556962024;158.0;1.0193548387096774;159.0;1.0392156862745099;153.0;0.9683544303797469;158.0;1.0193548387096774;155.0;0.9393939393939394;221.0;-0.2878299509387556;0.15113530731971342;110.0;111.0;-0.20214468688330087;-0.428593345141716;0.8968487358296637;-0.4763039496938853;-0.20618040626932743;0.365;0.48;0.5;0.525;0.815;0.0
163.0;1.0061728395061729;162.0;1.0253164556962024;158.0;1.0193548387096774;155.0;1.0;153.0;0.9683544303797469;158.0;1.0193548387096774;155.0;0.9393939393939394;165.0;1.0060975609756098;218.0;-0.2434675461489531;0.160897643966069;111.0;107.0;-0.12297619543454504;-0.39619598305766185;1.0359249717191827;-0.3428250696970524;-0.20208892569101153;0.35;0.49;0.51;0.53;0.815;0.0
162.0;1.0253164556962024;158.0;1.0193548387096774;155.0;1.0;155.0;0.96875;158.0;1.0193548387096774;155.0;0.9393939393939394;165.0;;164.0;0.9647058823529412;217.0;-0.24580597246133734;0.18321764530060647;107.0;110.0;-0.12590109175784736;-0.4589226867263406;1.1405414510200627;-0.3734454939859352;-0.2232602711461447;0.375;0.47;0.495;0.52;0.835;0.0
158.0;1.0193548387096774;155.0;1.0;155.0;0.96875;160.0;0.9580838323353293;155.0;0.9393939393939394;165.0;1.0060975609756098;164.0;0.9647058823529412;170.0;1.0493827160493827;218.0;-0.2724675581412931;0.1641264677292272;110.0;108.0;-0.15204500477300165;-0.44945721877458716;0.9998541733056132;-0.39671839992595137;-0.2607538176884569;0.385;0.485;0.51;0.53;0.82;0.0
155.0;1.0;155.0;0.96875;160.0;0.9580838323353293;167.0;1.0060240963855422;165.0;1.0060975609756098;164.0;0.9647058823529412;170.0;1.0493827160493827;162.0;1.0451612903225806;223.0;-0.30498817460656913;0.14762664232514044;108.0;115.0;-0.20645176619875918;-0.5042644195803686;0.8428891004533305;-0.4600957012343626;-0.26171668613317767;0.375;0.465;0.49;0.515;0.805;0.0
155.0;0.96875;160.0;0.9580838323353293;167.0;1.0060240963855422;166.0;1.0506329113924051;164.0;0.9647058823529412;170.0;1.0493827160493827;162.0;1.0451612903225806;155.0;1.0;229.0;-0.2530770834630616;0.15644127793938392;115.0;114.0;;-0.47353947356673054;0.9955769671833197;-0.3341109627488569;-0.1802499853571885;0.38;0.48;0.505;0.525;0.82;0.0
160.0;0.9580838323353293;167.0;1.0060240963855422;166.0;1.0506329113924051;158.0;0.9937106918238994;170.0;1.0493827160493827;162.0;1.0451612903225806;155.0;1.0;155.0;0.9872611464968153;232.0;-0.21731718077524576;0.16069701909559847;114.0;118.0;-0.05864286526478579;-0.35855601937815973;1.1115589413769686;-0.3151248833701834;-0.1859940314150808;0.375;0.475;0.495;0.515;0.82;0.0
167.0;1.0060240963855422;166.0;1.0506329113924051;158.0;0.9937106918238994;159.0;1.0392156862745099;162.0;1.0451612903225806;155.0;1.0;155.0;0.9872611464968153;157.0;0.98125;231.0;-0.244974399315033;0.14936267144384252;118.0;113.0;-0.12920260685154178;-0.492504296240878;;-0.3483167626361918;-0.22085171976716772;0.395;0.49;0.515;0.535;0.84;0.0
166.0;1.0506329113924051;158.0;0.9937106918238994;159.0;1.0392156862745099;153.0;0.9683544303797469;155.0;1.0;155.0;0.9872611464968153;157.0;0.98125;160.0;0.9815950920245399;221.0;-0.28863399373620124;0.1476849967805219;113.0;108.0;-0.16700819897125235;-0.4828055904490266;0.8863461908428483;-0.3925927503686709;-0.2657413233745819;0.355;0.495;0.515;0.54;0.83;0.0
158.0;0.9937106918238994;159.0;1.0392156862745099;153.0;0.9683544303797469;158.0;1.0193548387096774;155.0;0.9872611464968153;157.0;0.98125;160.0;0.9815950920245399;163.0;0.9702380952380952;216.0;-0.2949716022056554;0.1492005451261595;108.0;108.0;-0.21182996600562745;-0.47288087931591477;0.9312914265751739;-0.42930547865760027;-0.2340163467323113;0.375;0.48;0.5;0.52;0.865;0.0
159.0;1.0392156862745099;153.0;0.9683544303797469;158.0;1.0193548387096774;155.0;0.9393939393939394;157.0;0.98125;160.0;0.9815950920245399;163.0;0.9702380952380952;168.0;1.037037037037037;217.0;-0.26657450808951866;0.16112846388126426;108.0;109.0;-0.12438000522081531;-0.4667990608235239;1.0147778263515457;-0.3367452838767878;-0.23292189504672947;0.38;0.48;0.505;0.525;0.81;0.0
153.0;0.9683544303797469;158.0;1.0193548387096774;155.0;0.9393939393939394;165.0;1.0060975609756098;160.0;0.9815950920245399;163.0;0.9702380952380952;168.0;1.037037037037037;162.0;0.9938650306748467;221.0;-0.28038373817153833;0.1789027603163585;109.0;112.0;-0.1591211974258663;-0.5049357488855278;1.052939920517698;-0.37625235007171387;-0.26552231576955376;0.37;0.465;0.495;0.515;0.825;0.0
158.0;1.0193548387096774;155.0;0.9393939393939394;165.0;1.0060975609756098;164.0;0.9647058823529412;163.0;0.9702380952380952;168.0;1.037037037037037;162.0;0.9938650306748467;163.0;1.0251572327044025;226.0;-0.30728889705211876;0.14341599323074922;112.0;114.0;-0.18919717080820375;-0.5052862596468772;0.8772522061976691;-0.43161286910025276;-0.27089114033604317;0.37;0.475;0.495;0.515;0.82;0.0
155.0;0.9393939393939394;165.0;1.0060975609756098;164.0;0.9647058823529412;170.0;1.0493827160493827;168.0;1.037037037037037;162.0;0.9938650306748467;163.0;1.0251572327044025;159.0;1.0324675324675325;231.0;-0.282848593032103;0.15183304624871505;114.0;117.0;-0.18580336063374153;-0.48130461229095284;0.9277033168808343;-0.4257231649385944;-0.19105108252670322;0.34;0.475;0.495;0.515;0.845;0.0
165.0;1.0060975609756098;164.0;0.9647058823529412;170.0;1.0493827160493827;162.0;1.0451612903225806;162.0;0.9938650306748467;163.0;1.0251572327044025;159.0;1.0324675324675325;154.0;1.013157894736842;230.0;-0.22435629906739984;0.16881764683038647;117.0;113.0;-0.08288876661751947;-0.42242221106658095;1.1625645338482287;-0.3353189408238718;-0.19844103023530446;0.39;0.485;0.51;0.53;0.795;0.0
164.0;0.9647058823529412;170.0;1.0493827160493827;162.0;1.0451612903225806;155.0;1.0;163.0;1.0251572327044025;159.0;1.0324675324675325;154.0;1.013157894736842;152.0;0.926829268292683;227.0;-0.2638793399562028;0.15815740166532252;113.0;114.0;-0.12164875235936357;-0.4916270884093211;0.9819321930182844;-0.39404687716341313;-0.24581290529845018;0.375;0.48;0.505;0.52;0.81;0.0
170.0;1.0493827160493827;162.0;1.0451612903225806;155.0;1.0;155.0;0.9872611464968153;159.0;1.0324675324675325;154.0;1.013157894736842;152.0;0.926829268292683;164.0;0.9590643274853801;225.0;-0.3135117767405082;0.16377720153136827;114.0;111.0;-0.17383142231575904;-0.5437576417745921;0.9677839544710981;-0.4695347055623566;-0.29616851297652125;0.385;0.485;0.51;0.535;0.84;0.0
162.0;1.0451612903225806;155.0;1.0;155.0;0.9872611464968153;157.0;0.98125;154.0;1.013157894736842;152.0;0.926829268292683;164.0;0.9590643274853801;171.0;1.0178571428571428;218.0;-0.3470640384485014;0.15053385802445773;111.0;107.0;-0.23867722955019224;-0.5337383498323395;0.8431214491489811;-0.448116548163769;-0.28699593384905603;0.385;0.49;0.51;0.535;0.84;0.0
155.0;1.0;155.0;0.9872611464968153;157.0;0.98125;160.0;0.9815950920245399;152.0;0.926829268292683;164.0;0.9590643274853801;171.0;1.0178571428571428;168.0;1.0909090909090908;213.0;-0.3141334646956607;0.1758784736404009;107.0;106.0;-0.20722962603617606;-0.5094705172775945;1.067160591458555;-0.4163641840991149;-0.26696335822276984;0.385;;0.505;0.53;0.87;0.0
155.0;0.9872611464968153;157.0;0.98125;160.0;0.9815950920245399;163.0;0.9702380952380952;164.0;0.9590643274853801;171.0;1.0178571428571428;168.0;1.0909090909090908;154.0;1.0266666666666666;220.0;-0.3007093366988811;0.1696425321881228;106.0;114.0;-0.17921092762706417;-0.5009697945854752;1.0020892509003225;-0.4704787666103968;-0.251516886419425;0.345;0.46;0.485;0.505;0.8;0.0
157.0;0.98125;160.0;0.9815950920245399;163.0;0.9702380952380952;168.0;1.037037037037037;171.0;1.0178571428571428;168.0;1.0909090909090908;154.0;1.0266666666666666;150.0;0.9493670886075949;233.0;-0.2976638091589152;0.15330656217023145;114.0;119.0;-0.14843371201881975;-0.4596281737378267;0.9558409626946007;-0.4099196024560296;-0.270200827460313;0.365;0.47;0.49;0.51;0.81;0.0
160.0;0.9815950920245399;163.0;0.9702380952380952;168.0;1.037037037037037;162.0;0.9938650306748467;168.0;1.0909090909090908;154.0;1.0266666666666666;150.0;0.9493670886075949;158.0;0.9875;236.0;-0.34388308775313;0.15036859449789597;119.0;117.0;-0.22428246293341392;-0.5342092424309877;0.8336851329938346;-0.48941413495641084;-0.31704525449094684;0.37;0.485;0.505;0.525;0.82;0.0
163.0;0.9702380952380952;168.0;1.037037037037037;162.0;0.9938650306748467;163.0;1.0251572327044025;154.0;1.0266666666666666;150.0;0.9493670886075949;158.0;0.9875;160.0;1.0256410256410255;224.0;-0.3567516246904725;0.16033701332098227;117.0;107.0;-0.25203517587939706;-0.4917505866050689;0.956268701477071;-0.49162792794528204;-0.28351667367579464;0.39;0.505;0.525;0.55;0.865;0.0
168.0;1.037037037037037;162.0;0.9938650306748467;163.0;1.0251572327044025;159.0;1.0324675324675325;150.0;0.9493670886075949;158.0;0.9875;160.0;1.0256410256410255;156.0;0.9873417721518988;212.0;-0.3284897360952385;0.17163207078622178;107.0;105.0;-0.17773760790133608;-0.5423185336764942;1.0229794178289422;-0.41403940837869846;-0.28954759313500866;0.385;0.485;0.51;0.53;0.85;0.0
162.0;0.9938650306748467;163.0;1.0251572327044025;159.0;1.0324675324675325;154.0;1.013157894736842;158.0;0.9875;160.0;;156.0;0.9873417721518988;158.0;0.9575757575757575;215.0;-0.3184443230028616;0.15551087169709532;105.0;110.0;-0.17658271919580282;-0.5445070074713244;0.9505286637771222;-0.4066923738792927;-0.27005025125628135;0.36;0.47;0.495;0.515;0.84;0.0
163.0;1.0251572327044025;159.0;1.0324675324675325;154.0;1.013157894736842;152.0;0.926829268292683;160.0;1.0256410256410255;156.0;0.9873417721518988;158.0;0.9575757575757575;165.0;0.9821428571428571;222.0;-0.33810366085984855;0.15204998613836435;110.0;112.0;-0.18867385776736195;-0.5547467227364338;0.8641244067428632;-0.45546274632720113;-0.32989027100612206;0.355;0.475;0.5;0.52;0.85;0.0
159.0;1.0324675324675325;154.0;1.013157894736842;152.0;0.926829268292683;164.0;0.9590643274853801;156.0;0.9873417721518988;158.0;0.9575757575757575;165.0;0.9821428571428571;168.0;1.030674846625767;221.0;-0.3788699908329157;0.1562210459139522;112.0;109.0;-0.2674431883434712;-0.5841374530244823;0.8505285274769389;-0.5713634018265167;-0.31650424174619857;0.38;0.485;0.51;0.53;0.845;0.0
154.0;1.013157894736842;152.0;0.926829268292683;164.0;0.9590643274853801;171.0;1.0178571428571428;158.0;0.9575757575757575;165.0;0.9821428571428571;168.0;1.030674846625767;163.0;1.1164383561643836;219.0;-0.32075496827117844;0.21876853572823626;109.0;110.0;-0.17954951392392968;-0.5275553721424895;1.1849398226469101;-0.43887313285823215;-0.2801987584685801;0.375;0.475;0.505;0.525;0.845;0.0
152.0;0.926829268292683;164.0;0.9590643274853801;171.0;1.0178571428571428;168.0;1.0909090909090908;165.0;0.9821428571428571;168.0;1.030674846625767;163.0;1.1164383561643836;146.0;0.9733333333333334;225.0;-0.32817971810405716;0.16144658383546004;110.0;115.0;-0.21552227423103046;-0.5352625266370719;0.9506370021763575;-0.44349891761263477;-0.28058888385345104;0.35;0.47;0.49;0.51;0.815;0.0
164.0;0.9590643274853801;171.0;1.0178571428571428;168.0;1.0909090909090908;154.0;1.0266666666666666;168.0;1.030674846625767;163.0;1.1164383561643836;146.0;0.9733333333333334;150.0;0.9202453987730062;232.0;-0.32127037316463886;0.15024530722759621;115.0;117.0;-0.25685421946492876;-0.5768451450827442;0.9342000071134232;-0.4136720419720359;-0.30248561610309493;0.31;0.475;0.5;0.52;0.835;0.0
171.0;1.0178571428571428;168.0;1.0909090909090908;154.0;1.0266666666666666;150.0;0.9493670886075949;163.0;1.1164383561643836;146.0;0.9733333333333334;150.0;0.9202453987730062;163.0;0.9939024390243902;231.0;-0.3489203818000828;0.16364805598545315;117.0;114.0;-0.21871172276556294;-0.5886467107391813;0.8502275719762556;-0.46317952243927485;-0.3109608487841313;0.39;0.485;0.51;0.535;0.845;0.0
168.0;1.0909090909090908;154.0;1.0266666666666666;150.0;0.9493670886075949;158.0;0.9875;146.0;0.9733333333333334;150.0;0.9202453987730062;163.0;0.9939024390243902;164.0;1.0649350649350648;216.0;-0.32548020199564676;0.1634304256862533;114.0;102.0;-0.18025393123367617;-0.5202142737500844;0.9391326770741326;-0.44398839175634636;-0.2665951312674776;0.4;0.51;0.53;0.55;0.875;0.0
154.0;1.0266666666666666;150.0;0.9493670886075949;158.0;0.9875;160.0;1.0256410256410255;150.0;0.9202453987730062;163.0;0.9939024390243902;164.0;1.0649350649350648;154.0;0.9746835443037974;207.0;-0.322887435819773;0.19048586683385;102.0;105.0;-0.17080423885588142;-0.5335451527175865;1.0957148166773512;-0.45635828160121916;-0.3026267609860405;0.365;0.47;0.495;0.52;0.86;0.0
150.0;0.9493670886075949;158.0;0.9875;160.0;1.0256410256410255;156.0;0.9873417721518988;163.0;0.9939024390243902;164.0;1.0649350649350648;154.0;0.9746835443037974;158.0;0.9875;219.0;-0.34765812000360086;0.17331744779939515;105.0;114.0;-0.21328183692009037;-0.5286859485235595;0.9650601900132729;-0.46517714218030404;-0.3165272667244353;0.36;0.46;0.48;0.505;0.81;0.0
158.0;0.9875;160.0;1.0256410256410255;156.0;0.9873417721518988;158.0;0.9575757575757575;164.0;1.0649350649350648;154.0;0.9746835443037974;158.0;0.9875;160.0;1.0062893081761006;228.0;-0.39068132053563076;0.1523123369222441;114.0;114.0;-0.24654012048158375;-0.6341535681425389;0.8106029508540594;-0.5429321009872077;-0.36459068182232124;0.37;0.475;0.5;0.52;0.805;0.0
160.0;1.0256410256410255;156.0;0.9873417721518988;158.0;0.9575757575757575;165.0;0.9821428571428571;154.0;0.9746835443037974;158.0;0.9875;160.0;1.0062893081761006;159.0;1.347457627118644;221.0;-0.3744268928985031;0.1672300378085501;114.0;107.0;-0.25499058962215165;-0.6177188997928067;0.9280673368311079;-0.5048315797852361;-0.3193947177031803;0.38;0.49;0.52;0.54;0.855;0.0
156.0;0.9873417721518988;158.0;0.9575757575757575;165.0;0.9821428571428571;168.0;1.030674846625767;158.0;0.9875;160.0;1.0062893081761006;159.0;1.347457627118644;118.0;0.6519337016574586;217.0;-0.33737012160186913;0.1679092794210902;107.0;110.0;-0.19526141059447066;-0.5327253344282883;0.9442235465583249;-0.40124981218954897;-0.2800481396129212;0.36;0.475;0.495;0.52;0.825;0.0
158.0;0.9575757575757575;165.0;0.9821428571428571;168.0;1.030674846625767;163.0;1.1164383561643836;160.0;1.0062893081761006;159.0;1.347457627118644;118.0;0.6519337016574586;181.0;1.0773809523809523;222.0;-0.3248961394803072;0.15354457299557153;110.0;112.0;-0.19728566011542317;-0.547493644996339;0.9513043172081473;-0.42978621712807485;-0.2754325765923054;0.365;0.475;0.5;0.52;0.855;0.0
165.0;0.9821428571428571;168.0;1.030674846625767;163.0;1.1164383561643836;146.0;0.9733333333333334;159.0;1.347457627118644;118.0;0.6519337016574586;181.0;1.0773809523809523;168.0;0.9940828402366864;223.0;-0.332395421211586;0.1668116099943476;112.0;111.0;-0.1938493203880895;-0.5584450442297642;0.95594946181563;-0.4958191800434075;-0.3259224183202058;0.375;0.48;0.505;0.525;0.83;0.0
168.0;1.030674846625767;163.0;1.1164383561643836;146.0;0.9733333333333334;150.0;0.9202453987730062;118.0;0.6519337016574586;181.0;1.0773809523809523;168.0;0.9940828402366864;169.0;1.0119760479041917;193.0;-0.4013270523562187;0.16538377923672243;111.0;82.0;-0.2878005709737642;-0.6145752251961278;0.8142754665185294;-0.5442876221233849;-0.29731324632445116;0.41;0.55;0.58;0.605;0.98;0.0
146.0;0.9733333333333334;150.0;0.9202453987730062;163.0;;164.0;1.0649350649350648;168.0;0.9940828402366864;169.0;1.0119760479041917;167.0;1.0308641975308641;162.0;1.0384615384615385;243.0;-0.3407231665265587;0.15145416852331242;126.0;117.0;-0.2453848762993232;-0.5400089186657067;0.9373290204392121;-0.4743091469154105;-0.27111433783028704;0.395;0.5;0.52;0.54;0.83;0.0
150.0;0.9202453987730062;163.0;0.9939024390243902;164.0;1.0649350649350648;154.0;0.9746835443037974;169.0;1.0119760479041917;167.0;1.0308641975308641;162.0;1.0384615384615385;156.0;1.21875;235.0;-0.2844866392666175;0.1383193479907128;117.0;118.0;-0.17726967601342478;-0.51286440760743;0.8635117680996438;-0.4371272689731106;-0.23033458468742163;0.375;0.475;0.5;0.515;0.815;0.0
163.0;0.9939024390243902;164.0;1.0649350649350648;154.0;0.9746835443037974;158.0;0.9875;167.0;1.0308641975308641;162.0;1.0384615384615385;156.0;1.21875;128.0;0.7272727272727273;234.0;-0.27871320566861013;0.14481474903113437;118.0;116.0;-0.17247881916990926;-0.4907533667492776;0.8704225843263756;-0.4263830827834254;-0.24732710173637504;0.335;0.48;0.505;0.525;0.825;0.0
164.0;1.0649350649350648;154.0;0.9746835443037974;158.0;0.9875;160.0;1.0062893081761006;162.0;1.0384615384615385;156.0;1.21875;128.0;0.7272727272727273;176.0;1.1;229.0;-0.23904576655940485;0.20717727216907614;116.0;113.0;-0.13707334660616521;-0.449661360684358;1.1780764638120775;-0.33438729261376765;-0.22184566921869864;0.385;0.48;0.515;0.535;0.89;0.0
154.0;0.9746835443037974;158.0;0.9875;160.0;;159.0;1.347457627118644;156.0;1.21875;128.0;0.7272727272727273;176.0;1.1;160.0;1.0457516339869282;222.0;-0.24791922676226677;0.15301529862612195;113.0;109.0;-0.11355626032865676;-0.45608984362896976;0.992521913912097;-0.3407537380902356;-0.21525340201833648;0.36;0.49;0.51;0.53;0.84;0.0
158.0;0.9875;160.0;1.0062893081761006;159.0;1.347457627118644;118.0;0.6519337016574586;128.0;0.7272727272727273;176.0;1.1;160.0;1.0457516339869282;153.0;0.9622641509433962;198.0;-0.2731441415391915;0.15912951577670018;109.0;89.0;-0.1377694666579944;-0.4959023874520847;0.9778182546734194;-0.41678280341651625;-0.2521687985410464;0.405;0.525;0.55;0.57;0.905;0.0
159.0;1.347457627118644;118.0;0.6519337016574586;181.0;1.0773809523809523;168.0;0.9940828402366864;160.0;1.0457516339869282;153.0;0.9622641509433962;159.0;0.9408284023668639;169.0;1.0180722891566265;235.0;-0.3433906690914661;0.1404794172656478;123.0;112.0;-0.23379593899564677;-0.5885447054662287;0.7616987317706814;-0.4954246391256995;-0.28486073902933173;0.37;0.505;0.525;0.545;0.85;0.0
118.0;0.6519337016574586;181.0;1.0773809523809523;168.0;0.9940828402366864;169.0;1.0119760479041917;153.0;0.9622641509433962;159.0;0.9408284023668639;169.0;1.0180722891566265;166.0;1.1216216216216217;219.0;-0.32263683221042716;0.15987995862594914;112.0;107.0;-0.18369519622759212;-0.5170395546750257;0.927987941568613;-0.4615727734093854;-0.26948105058646604;0.39;0.49;0.515;0.53;0.83;0.0
181.0;1.0773809523809523;168.0;0.9940828402366864;169.0;1.0119760479041917;167.0;1.0308641975308641;159.0;0.9408284023668639;169.0;1.0180722891566265;166.0;1.1216216216216217;148.0;0.9801324503311258;218.0;-0.32151491944616933;0.1588748639538619;107.0;111.0;-0.18566041728098903;-0.47434937842340774;0.9132831926580405;-0.4023305397581537;-0.28773955067656687;0.355;0.47;0.495;0.515;0.845;0.0
168.0;0.9940828402366864;169.0;1.0119760479041917;167.0;1.0308641975308641;162.0;1.0384615384615385;169.0;1.0180722891566265;166.0;1.1216216216216217;148.0;0.9801324503311258;151.0;0.9741935483870968;229.0;-0.33546445931568697;0.14075492579013354;111.0;118.0;-0.19555849431946765;-0.5194262903528549;0.7879984446823982;-0.44893145113437194;-0.3279256383799147;0.36;0.465;0.485;0.505;0.855;0.0
169.0;1.0119760479041917;167.0;1.0308641975308641;162.0;1.0384615384615385;156.0;1.21875;166.0;1.1216216216216217;148.0;0.9801324503311258;151.0;0.9741935483870968;155.0;0.9451219512195121;234.0;-0.3695506552524025;0.15180655581632593;118.0;116.0;-0.24088154703585965;-0.566574663096725;0.7632299238459077;-0.5529228306013952;-0.33779141685417546;0.35;0.485;0.51;0.535;0.845;0.0
167.0;1.0308641975308641;162.0;1.0384615384615385;156.0;1.21875;128.0;0.7272727272727273;148.0;0.9801324503311258;151.0;0.9741935483870968;155.0;0.9451219512195121;164.0;1.025;219.0;-0.3424437394867416;0.1763697629054591;116.0;103.0;-0.2484603452779785;-0.5423492929532377;0.9510916020211213;-0.4120392379522725;-0.2745958094931217;0.395;0.505;0.535;0.56;0.86;0.0
162.0;1.0384615384615385;156.0;1.21875;128.0;0.7272727272727273;176.0;1.1;151.0;0.9741935483870968;155.0;0.9451219512195121;164.0;1.025;160.0;1.0126582278481013;208.0;-0.3174694670125837;0.16149470375679179;103.0;105.0;-0.17848197402068292;-0.5248347136098074;1.0295719420559286;-0.41979063224324814;-0.28233636133750706;0.365;0.47;0.495;0.515;0.805;0.0
156.0;1.21875;128.0;0.7272727272727273;176.0;1.1;160.0;1.0457516339869282;155.0;0.9451219512195121;164.0;1.025;160.0;1.0126582278481013;158.0;0.9875;213.0;-0.33536547995575916;0.14608760521436703;105.0;108.0;-0.20586091688635502;-0.5750049000794206;0.8598565884538405;-0.4153687842106804;-0.30392983461459755;0.36;0.47;0.495;0.515;0.84;0.0
128.0;0.7272727272727273;176.0;1.1;160.0;1.0457516339869282;153.0;0.9622641509433962;164.0;1.025;160.0;1.0126582278481013;158.0;0.9875;160.0;0.975609756097561;222.0;-0.35949403059560503;0.13900631404318417;108.0;114.0;-0.2444826059482515;-0.5371696216570947;0.8045265686144717;-0.4855348097343236;-0.3499421440020174;0.355;0.47;0.49;0.51;0.81;0.0
176.0;1.1;160.0;1.0457516339869282;153.0;0.9622641509433962;159.0;0.9408284023668639;160.0;1.0126582278481013;158.0;;160.0;0.975609756097561;164.0;1.0580645161290323;226.0;-0.3441409353036717;0.1703468485833185;114.0;112.0;-0.251507648596864;-0.5428210215405027;0.8456973681543011;-0.4234847486788612;-0.2897515775190696;0.34;0.475;0.505;0.53;0.835;0.0
160.0;1.0457516339869282;153.0;0.9622641509433962;159.0;0.9408284023668639;169.0;1.0180722891566265;158.0;0.9875;160.0;0.975609756097561;164.0;1.0580645161290323;155.0;1.0472972972972974;222.0;-0.3207176707342076;0.16483288212017783;112.0;110.0;-0.17459757804399637;-0.5360293851802086;1.0002882510585147;-0.4319449662805073;-0.28604214437941716;0.365;0.48;0.505;0.525;0.81;0.0
153.0;0.9622641509433962;159.0;0.9408284023668639;169.0;1.0180722891566265;166.0;1.1216216216216217;160.0;0.975609756097561;164.0;1.0580645161290323;155.0;1.0472972972972974;148.0;0.961038961038961;222.0;-0.3170032879160261;0.16583073830215742;110.0;112.0;-0.17488812234658435;-0.524234823730452;0.9382935591201983;-0.5153055341256764;-0.27054276056128607;0.365;0.47;0.495;0.52;0.825;0.0
159.0;0.9408284023668639;169.0;1.0180722891566265;166.0;1.1216216216216217;148.0;0.9801324503311258;164.0;1.0580645161290323;155.0;1.0472972972972974;148.0;0.961038961038961;154.0;1.2622950819672132;226.0;-0.3318016111455862;;112.0;114.0;-0.20932629465163435;-0.49279495179964605;0.9621260379177159;-0.45470015504514166;-0.31680904522613074;0.38;0.475;0.5;0.525;0.835;0.0
169.0;1.0180722891566265;166.0;1.1216216216216217;148.0;0.9801324503311258;151.0;0.9741935483870968;155.0;1.0472972972972974;148.0;0.961038961038961;154.0;1.2622950819672132;122.0;0.5951219512195122;222.0;-0.3323576312164269;0.15590305223120968;114.0;108.0;-0.24840505749941844;-0.5394196691751109;0.8766593473150199;-0.5048282758422662;-0.22784593982429768;0.37;0.495;0.515;0.535;0.875;0.0
166.0;1.1216216216216217;148.0;0.9801324503311258;151.0;0.9741935483870968;155.0;0.9451219512195121;148.0;0.961038961038961;154.0;1.2622950819672132;122.0;0.5951219512195122;205.0;1.1714285714285715;211.0;-0.25631601196024323;0.16032084369538108;108.0;103.0;-0.11265624056998838;;1.0495583712223864;-0.3442680265391713;-0.19941821811260751;0.38;0.49;0.515;0.535;0.82;0.0
148.0;0.9801324503311258;151.0;0.9741935483870968;155.0;0.9451219512195121;164.0;1.025;154.0;1.2622950819672132;122.0;0.5951219512195122;205.0;1.1714285714285715;175.0;1.0542168674698795;210.0;-0.2517421038373177;0.15919309667929876;103.0;107.0;-0.10896115344157425;-0.455827625643071;1.0226148982367242;-0.3863440062104332;-0.21321309881575207;0.365;0.47;0.495;0.515;0.81;0.0
151.0;0.9741935483870968;155.0;0.9451219512195121;164.0;1.025;160.0;1.0126582278481013;122.0;0.5951219512195122;205.0;1.1714285714285715;175.0;1.0542168674698795;166.0;1.0573248407643312;192.0;-0.2657736791732443;0.15333611402241126;107.0;85.0;-0.12035939470662319;-0.46676965548002547;0.9213389574412205;-0.36873350458123905;-0.2279530037458829;0.41;0.535;0.56;0.585;0.975;0.0
164.0;1.025;160.0;1.0126582278481013;158.0;0.9875;160.0;0.975609756097561;175.0;1.0542168674698795;166.0;1.0573248407643312;157.0;1.0;157.0;0.9691358024691358;265.0;-0.27708535507823684;0.15790118114540275;143.0;122.0;-0.17254960156506538;;0.9830571735449416;-0.379436487804532;-0.19418913335701668;0.4;0.515;0.54;0.56;0.825;0.0
160.0;1.0126582278481013;158.0;0.9875;160.0;0.975609756097561;164.0;1.0580645161290323;166.0;1.0573248407643312;157.0;1.0;157.0;0.9691358024691358;162.0;1.0125;238.0;-0.23230860886514676;0.15329815613289996;122.0;116.0;-0.11180919342849875;-0.4303315023518471;1.0159076568526286;-0.3552564384317538;-0.2159658658942655;0.395;0.49;0.515;0.535;0.835;0.0
158.0;0.9875;160.0;0.975609756097561;164.0;1.0580645161290323;155.0;1.0472972972972974;157.0;1.0;157.0;0.9691358024691358;162.0;1.0125;160.0;0.9815950920245399;225.0;-0.2541205674185948;0.16268274480326916;116.0;109.0;-0.13263149992045967;-0.4367849067109711;1.026160145930913;-0.40471280730189263;-0.23089208758020965;0.4;0.495;0.52;0.54;0.835;0.0
160.0;0.975609756097561;164.0;1.0580645161290323;155.0;1.0472972972972974;148.0;0.961038961038961;157.0;0.9691358024691358;162.0;1.0125;160.0;0.9815950920245399;163.0;0.9939024390243902;218.0;-0.3202788841573394;0.1404017520297664;109.0;109.0;-0.2116726641172913;-0.5601979757084283;0.7767313622270011;-0.40946555680483043;-0.3084899176103529;0.335;0.475;0.505;0.525;0.86;0.0
164.0;1.0580645161290323;155.0;1.0472972972972974;148.0;0.961038961038961;154.0;1.2622950819672132;162.0;1.0125;160.0;0.9815950920245399;163.0;0.9939024390243902;164.0;0.9761904761904762;222.0;-0.3011228121410617;0.16094159279821274;109.0;113.0;-0.21202700949903946;-0.49385678005799205;0.9882666609742374;-0.4044583484524211;-0.24992105025015163;0.375;0.47;0.495;0.515;0.855;0.0
155.0;1.0472972972972974;148.0;0.961038961038961;154.0;1.2622950819672132;122.0;0.5951219512195122;160.0;0.9815950920245399;163.0;0.9939024390243902;164.0;0.9761904761904762;168.0;1.030674846625767;225.0;-0.2500865747463035;0.153643541198157;113.0;112.0;-0.14620068247234969;-0.4762517833538485;1.0222416943904664;-0.3322069552131918;-0.19128646937173194;0.35;0.48;0.505;0.525;0.81;0.0
148.0;0.961038961038961;154.0;1.2622950819672132;122.0;0.5951219512195122;205.0;1.1714285714285715;163.0;0.9939024390243902;164.0;0.9761904761904762;168.0;;163.0;1.0516129032258064;226.0;-0.24719887464023363;0.14593825347404904;112.0;114.0;-0.1296156724673937;-0.43762514467320696;0.9565584537002132;-0.3680027299611113;-0.23985240983474213;0.38;0.475;0.495;0.515;0.8;0.0
154.0;1.2622950819672132;122.0;0.5951219512195122;205.0;1.1714285714285715;175.0;1.0542168674698795;164.0;0.9761904761904762;168.0;1.030674846625767;163.0;1.0516129032258064;155.0;1.0064935064935066;228.0;-0.31611074276514045;0.14334725560871525;114.0;114.0;-0.20571175152940716;-0.5257313438436941;0.8702790601337778;-0.46789901534862766;-0.29211619093348284;0.33;0.48;0.5;0.52;0.805;0.0
122.0;0.5951219512195122;205.0;1.1714285714285715;175.0;1.0542168674698795;166.0;1.0573248407643312;168.0;1.030674846625767;163.0;1.0516129032258064;155.0;1.0064935064935066;154.0;0.9625;231.0;-0.32168879655097143;0.14492460177267277;114.0;117.0;-0.22470819757545413;-0.5148671557140472;0.8485904757852976;-0.45326575666011665;-0.2515386449960827;0.375;0.475;0.495;0.515;0.835;0.0
205.0;1.1714285714285715;175.0;1.0542168674698795;166.0;1.0573248407643312;157.0;1.0;163.0;1.0516129032258064;155.0;1.0064935064935066;154.0;0.9625;160.0;1.0126582278481013;231.0;-0.28550404287777964;0.16370878338657957;117.0;114.0;-0.16895543664891097;-0.49124690637513097;1.0446534308002575;-0.3618044336201385;-0.24802645357896824;0.385;0.485;0.51;0.53;0.815;0.0
175.0;1.0542168674698795;166.0;1.0573248407643312;157.0;1.0;157.0;0.9691358024691358;155.0;1.0064935064935066;154.0;0.9625;160.0;1.0126582278481013;158.0;0.9634146341463414;222.0;-0.2808230479237932;0.15005473037810937;114.0;108.0;-0.16998541916034193;-0.4827849874353076;0.9223072791149494;-0.3501457991400372;-0.24287473670189524;0.385;0.49;0.515;0.535;0.805;0.0
166.0;1.0573248407643312;157.0;1.0;157.0;0.9691358024691358;162.0;1.0125;154.0;0.9625;160.0;1.0126582278481013;158.0;0.9634146341463414;164.0;1.312;215.0;-0.2919799477537778;0.14285844329710556;108.0;107.0;-0.15076606736356446;-0.5088949056983925;0.8270747269085871;-0.4001215383039335;-0.2662538785069447;0.365;0.48;0.505;0.525;0.84;0.0
157.0;1.0;157.0;0.9691358024691358;162.0;1.0125;160.0;0.9815950920245399;160.0;1.0126582278481013;158.0;0.9634146341463414;164.0;1.312;125.0;0.625;219.0;-0.30346542560324435;0.15054515359194123;107.0;112.0;-0.21506642482134614;-0.49841305779522355;0.9294376247226841;-0.4843731707154795;-0.23111555142179974;0.37;0.47;0.49;0.51;0.805;0.0
157.0;0.9691358024691358;162.0;1.0125;160.0;0.9815950920245399;163.0;0.9939024390243902;158.0;0.9634146341463414;164.0;1.312;125.0;0.625;200.0;1.2269938650306749;222.0;-0.266714444262034;0.20037145129884923;112.0;110.0;-0.13816076827039736;-0.47118532708293004;1.1557716401307512;-0.34411352790633737;-0.23032465393040624;0.37;0.475;0.505;0.53;0.815;0.0
162.0;1.0125;160.0;0.9815950920245399;163.0;0.9939024390243902;164.0;0.9761904761904762;164.0;1.312;125.0;0.625;200.0;1.2269938650306749;163.0;1.0124223602484472;224.0;-0.2647731033981959;0.15565803523247104;110.0;114.0;-0.13221066431363265;-0.46489559301029837;1.0321894512341734;-0.3608921629336025;-0.2142265401795889;0.37;0.47;0.495;0.515;0.82;0.0
160.0;0.9815950920245399;163.0;0.9939024390243902;164.0;0.9761904761904762;168.0;1.030674846625767;125.0;0.625;200.0;1.2269938650306749;163.0;1.0124223602484472;161.0;1.0254777070063694;201.0;-0.28003508351676804;0.15990351073753029;114.0;87.0;-0.12950861042446532;-0.47766541264019263;0.9163597508242931;-0.41896347423865243;-0.261714321153732;0.425;0.545;0.57;0.59;0.985;0.0
164.0;0.9761904761904762;168.0;1.030674846625767;163.0;1.0516129032258064;155.0;1.0064935064935066;163.0;1.0124223602484472;161.0;1.0254777070063694;157.0;1.3305084745762712;118.0;0.5870646766169154;254.0;-0.32633855502831133;0.15041123326882327;140.0;114.0;-0.23706213894234418;-0.44810426230770034;0.9426129110028456;-0.4232970477940887;-0.2483709823129598;0.445;0.535;0.55;0.57;0.845;0.0
168.0;1.030674846625767;163.0;1.0516129032258064;155.0;1.0064935064935066;154.0;0.9625;;1.0254777070063694;157.0;1.3305084745762712;118.0;0.5870646766169154;201.0;1.1355932203389831;226.0;-0.2882789570225729;0.15791477012655408;114.0;112.0;-0.17272439650893398;-0.5119929402255151;1.0078632128011908;-0.36205598380239773;-0.24510083969072868;0.385;0.48;0.505;0.525;0.825;0.0
163.0;1.0516129032258064;155.0;1.0064935064935066;154.0;0.9625;160.0;1.0126582278481013;157.0;1.3305084745762712;118.0;0.5870646766169154;201.0;1.1355932203389831;177.0;1.0598802395209581;221.0;-0.29671993300990135;0.1492540832801775;112.0;109.0;-0.179865883816431;-0.5037878065693545;0.9471207777695224;-0.4211460145692051;-0.2706953901713652;0.385;0.485;0.51;0.53;0.815;0.0
155.0;1.0064935064935066;154.0;0.9625;160.0;1.0126582278481013;158.0;0.9634146341463414;118.0;0.5870646766169154;201.0;1.1355932203389831;177.0;1.0598802395209581;167.0;1.04375;191.0;-0.3284968353074784;0.15548599730211043;109.0;82.0;-0.22240325344918477;-0.5119549130408098;0.7635293328225332;-0.472573287401716;-0.16923651797153944;0.385;0.55;0.575;0.595;0.98;0.0
160.0;1.0126582278481013;158.0;0.9634146341463414;164.0;1.312;125.0;0.625;177.0;1.0598802395209581;167.0;1.04375;160.0;0.9815950920245399;163.0;1.0251572327044025;263.0;-0.31335608984862134;0.15596345170325662;140.0;123.0;-0.2058072205112831;-0.5265953351334491;1.0284372657507248;-0.40339692027208096;-0.2691952569073179;0.42;0.515;0.535;0.555;0.82;0.0
158.0;0.9634146341463414;164.0;1.312;125.0;0.625;200.0;1.2269938650306749;167.0;1.04375;160.0;0.9815950920245399;163.0;1.0251572327044025;159.0;0.9578313253012049;239.0;-0.31882102270188695;0.15499085933248455;123.0;116.0;-0.19272226788827013;-0.4995055134785158;0.9055136943439404;-0.4634535505712724;-0.28701872274734536;0.36;0.495;0.52;0.535;0.815;0.0
164.0;1.312;125.0;0.625;200.0;1.2269938650306749;163.0;1.0124223602484472;160.0;0.9815950920245399;163.0;1.0251572327044025;159.0;0.9578313253012049;166.0;1.0246913580246915;228.0;-0.36852471010355486;0.1440156197093277;116.0;112.0;-0.2289196779358116;-0.5700338142660608;0.7727606953614643;-0.5269863198140559;-0.34234225952225816;0.36;0.49;0.51;0.53;0.81;0.0
125.0;0.625;200.0;1.2269938650306749;163.0;1.0124223602484472;161.0;1.0254777070063694;163.0;1.0251572327044025;159.0;0.9578313253012049;166.0;1.0246913580246915;162.0;0.9529411764705882;226.0;-0.3532272172047783;0.16054716119189608;112.0;114.0;-0.28627633266176705;-0.5592708988867686;0.9551074229474044;-0.5184473941797559;-0.26062712728999887;0.345;0.475;0.5;0.52;0.84;0.0
200.0;1.2269938650306749;163.0;1.0124223602484472;161.0;1.0254777070063694;157.0;1.3305084745762712;159.0;0.9578313253012049;166.0;1.0246913580246915;162.0;0.9529411764705882;170.0;1.0;225.0;-0.2812860169775272;0.16168014631777358;114.0;111.0;-0.15717191253530624;-0.40724963811608306;1.087964378264993;-0.4130648084801252;-0.2442800614946982;0.355;0.49;0.51;0.525;0.825;0.0
163.0;1.0124223602484472;161.0;1.0254777070063694;157.0;1.3305084745762712;118.0;0.5870646766169154;166.0;1.0246913580246915;162.0;0.9529411764705882;170.0;1.0;170.0;1.0240963855421688;227.0;-0.2741784461080367;0.15712961824616373;111.0;116.0;-0.1562282774479291;-0.46970508393066646;1.042158566719192;-0.41625237679030386;-0.2401206282859989;0.375;0.47;0.49;0.515;0.795;0.0
161.0;1.0254777070063694;157.0;1.3305084745762712;118.0;0.5870646766169154;201.0;1.1355932203389831;162.0;0.9529411764705882;170.0;1.0;170.0;1.0240963855421688;166.0;1.0573248407643312;229.0;-0.2858181362955856;0.14459369618304765;116.0;113.0;-0.14522429454134753;-0.45962749242433965;0.9377806949868714;-0.3953474186842249;-0.26652860235677756;0.385;0.49;0.51;0.53;0.815;0.0
157.0;1.3305084745762712;118.0;0.5870646766169154;201.0;1.1355932203389831;177.0;1.0598802395209581;170.0;1.0;170.0;1.0240963855421688;166.0;1.0573248407643312;157.0;1.0;231.0;-0.32345409105198525;0.1471189897680652;113.0;118.0;-0.21513923028638504;-0.5417229631039553;0.8122048237432121;-0.4381700280100212;-0.28337344456334435;0.33;0.47;0.49;0.515;0.845;0.0
118.0;0.5870646766169154;201.0;1.1355932203389831;177.0;1.0598802395209581;167.0;1.04375;170.0;1.0240963855421688;166.0;1.0573248407643312;157.0;1.0;157.0;0.9874213836477987;236.0;-0.3090484105570561;0.16774566241807304;118.0;118.0;-0.20158792778681295;-0.4633664093225839;1.1137957802891767;-0.39192122526742423;-0.2584991498669158;0.38;0.48;0.5;0.52;0.805;0.0
201.0;1.1355932203389831;177.0;1.0598802395209581;167.0;1.04375;160.0;0.9815950920245399;166.0;1.0573248407643312;157.0;1.0;157.0;0.9874213836477987;159.0;0.9352941176470588;234.0;-0.30112613134807154;0.15828308363428883;118.0;116.0;-0.1869100927489474;-0.5178445391349751;0.9874518912455572;-0.44038745189426576;-0.27152298290386995;0.35;0.485;0.505;0.525;0.87;0.0
177.0;1.0598802395209581;167.0;1.04375;160.0;0.9815950920245399;163.0;1.0251572327044025;157.0;1.0;157.0;0.9874213836477987;159.0;0.9352941176470588;170.0;0.9770114942528736;225.0;-0.3093260078212003;0.14873948071981008;116.0;109.0;-0.17266602806384673;-0.5230657644920211;0.9685151950613474;-0.3920290833615393;-0.2946442121824759;0.395;0.495;0.515;0.535;0.84;0.0
167.0;1.04375;160.0;0.9815950920245399;163.0;1.0251572327044025;159.0;0.9578313253012049;157.0;0.9874213836477987;159.0;0.9352941176470588;170.0;0.9770114942528736;174.0;1.0609756097560976;218.0;-0.3519624714812883;0.14514503644855334;109.0;109.0;-0.25785921592452576;-0.5687798517777471;0.8269995132541288;-0.4669277098623522;-0.30373270219994114;0.38;0.48;0.505;0.525;0.82;0.0
160.0;0.9815950920245399;163.0;1.0251572327044025;159.0;0.9578313253012049;166.0;1.0246913580246915;159.0;0.9352941176470588;170.0;0.9770114942528736;174.0;1.0609756097560976;164.0;0.9761904761904762;220.0;-0.3174159255825068;0.18392366955498834;109.0;111.0;-0.23716997393391753;-0.4855419831584765;1.0293135524306294;-0.40690485305636703;-0.24470676891620674;0.375;0.47;0.495;0.52;0.81;0.0
163.0;1.0251572327044025;159.0;0.9578313253012049;166.0;1.0246913580246915;162.0;0.9529411764705882;170.0;0.9770114942528736;174.0;1.0609756097560976;164.0;0.9761904761904762;168.0;1.05;229.0;-0.292603859617962;0.1580977670338224;111.0;118.0;-0.15979102605797468;-0.5213490462132667;0.9830678707755273;-0.3647779129120282;-0.24151579472988696;0.375;0.465;0.49;0.51;0.82;0.0
159.0;0.9578313253012049;166.0;1.0246913580246915;162.0;0.9529411764705882;170.0;1.0;174.0;1.0609756097560976;164.0;0.9761904761904762;168.0;1.05;160.0;1.0062893081761006;239.0;-0.2840990190428614;0.15503342084774616;118.0;121.0;-0.18531701161665945;-0.5098748200159431;1.0160702252235225;-0.3879869365046138;-0.2691046497361065;0.38;0.47;0.495;0.515;0.855;0.0
166.0;1.0246913580246915;162.0;0.9529411764705882;170.0;1.0;170.0;1.0240963855421688;164.0;0.9761904761904762;168.0;1.05;160.0;1.0062893081761006;159.0;1.0258064516129033;235.0;-0.30856045825056244;0.1391552286537709;121.0;114.0;-0.20050122208688148;-0.5743741162896604;0.8026352477057562;-0.3898557925416782;-0.2926910423664702;0.395;0.495;0.52;0.54;0.81;0.0
162.0;0.9529411764705882;170.0;1.0;170.0;1.0240963855421688;166.0;1.0573248407643312;168.0;1.05;160.0;1.0062893081761006;159.0;1.0258064516129033;155.0;0.96875;231.0;-0.30744248003361496;0.18968018706192147;114.0;117.0;-0.20393081636963228;-0.4649910600418637;1.0802456053082772;-0.4543695391952618;-0.2679886065322163;0.36;0.475;0.5;0.525;0.85;0.0
170.0;1.0;170.0;1.0240963855421688;166.0;1.0573248407643312;157.0;1.0;160.0;1.0062893081761006;159.0;1.0258064516129033;155.0;0.96875;160.0;0.9411764705882353;229.0;-0.2808407845694759;0.17055924033936917;117.0;112.0;-0.1748853274407383;-0.44252317822470594;1.0959617582475905;-0.38479122769779583;-0.21275652940632797;0.385;0.49;0.51;0.53;0.82;0.0
170.0;1.0240963855421688;166.0;1.0573248407643312;157.0;1.0;157.0;0.9874213836477987;159.0;1.0258064516129033;155.0;0.96875;160.0;0.9411764705882353;170.0;1.0;223.0;-0.2599804738636269;0.15989103480584685;112.0;111.0;-0.10936121194878191;-0.4857229988534285;1.0478142914015125;-0.32449109322567876;-0.2219269682927922;0.385;0.48;0.505;0.525;0.805;0.0
166.0;1.0573248407643312;157.0;1.0;157.0;0.9874213836477987;159.0;0.9352941176470588;155.0;0.96875;160.0;0.9411764705882353;170.0;1.0;170.0;1.0119047619047619;219.0;-0.2895547734519194;0.1492194827576955;111.0;108.0;-0.16760073299236064;-0.5223888962346724;0.8762955656643507;-0.4392859180729976;-0.30483153609028;0.385;0.485;0.51;0.525;0.88;0.0
157.0;1.0;157.0;0.9874213836477987;159.0;0.9352941176470588;170.0;0.9770114942528736;160.0;0.9411764705882353;170.0;1.0;170.0;1.0119047619047619;168.0;1.05;220.0;-0.3443931187321936;0.1734810651255357;108.0;112.0;-0.22374053467258476;-0.5231254203518739;0.9633162315434776;-0.47666697939879;-0.325483315038403;0.345;0.47;0.495;0.515;0.84;0.0
157.0;0.9874213836477987;159.0;0.9352941176470588;170.0;0.9770114942528736;174.0;1.0609756097560976;170.0;1.0;170.0;1.0119047619047619;168.0;1.05;160.0;0.9876543209876543;230.0;-0.3501468425307839;0.15820783399093302;112.0;118.0;-0.24659187881234465;-0.5724596211590299;0.9339387956511438;-0.4390163086035248;-0.2859257072350763;0.365;0.465;0.49;0.51;0.84;0.0
159.0;0.9352941176470588;170.0;0.9770114942528736;174.0;1.0609756097560976;164.0;0.9761904761904762;170.0;1.0119047619047619;168.0;1.05;160.0;0.9876543209876543;162.0;1.0062111801242235;236.0;-0.31453640516949827;0.18037899170763044;118.0;118.0;-0.19910803515641767;-0.5336099621306044;1.0994623138854673;-0.41126990901657323;-0.27284568210459015;0.375;0.475;0.5;0.52;0.855;0.0
170.0;0.9770114942528736;174.0;1.0609756097560976;164.0;0.9761904761904762;168.0;1.05;168.0;1.05;160.0;0.9876543209876543;162.0;1.0062111801242235;161.0;0.9938271604938271;235.0;-0.31102632190625895;0.21649745989390848;118.0;117.0;-0.21427791763630571;-0.48185426622259764;1.1852667273122017;-0.4555015280954158;-0.30044754421956477;0.355;0.48;0.505;0.53;0.83;0.0
174.0;1.0609756097560976;164.0;0.9761904761904762;168.0;1.05;160.0;1.0062893081761006;160.0;0.9876543209876543;162.0;1.0062111801242235;161.0;0.9938271604938271;162.0;1.0;229.0;-0.36326106698167593;0.14342388945868179;117.0;112.0;-0.24396758021573972;-0.5083968531940724;0.8293228984443815;-0.516269008809352;-0.35267345148341633;0.395;0.495;0.515;0.535;0.84;0.0
164.0;0.9761904761904762;168.0;1.05;160.0;1.0062893081761006;159.0;1.0258064516129033;162.0;1.0062111801242235;161.0;0.9938271604938271;162.0;1.0;162.0;0.9642857142857143;225.0;-0.3447916591870883;0.14976494198332063;112.0;113.0;-0.2611287897404664;-0.5566091460150743;0.8468349749052155;-0.4409639411405852;-0.25276633366906526;0.35;0.48;0.505;0.525;0.805;0.0
168.0;1.05;160.0;1.0062893081761006;159.0;1.0258064516129033;155.0;0.96875;161.0;0.9938271604938271;162.0;1.0;162.0;0.9642857142857143;168.0;1.0059880239520957;225.0;-0.2539716432477397;0.16308013577480948;113.0;112.0;-0.12730218581781894;-0.48069548298839365;1.0607805703478097;-0.3812771833997721;-0.180172712940614;0.38;0.48;0.505;0.52;0.83;0.0
160.0;1.0062893081761006;159.0;1.0258064516129033;155.0;0.96875;160.0;0.9411764705882353;162.0;1.0;162.0;0.9642857142857143;168.0;1.0059880239520957;167.0;0.9940476190476191;225.0;-0.2404529458038967;0.1604491077931842;112.0;113.0;-0.11836274398796354;-0.46976293373319294;0.999355070934859;-0.3604480755226596;-0.23806282430543543;0.38;0.475;0.5;0.515;0.82;0.0
159.0;1.0258064516129033;155.0;0.96875;160.0;0.9411764705882353;170.0;1.0;162.0;0.9642857142857143;168.0;1.0059880239520957;167.0;0.9940476190476191;168.0;1.0632911392405062;226.0;-0.29246765475189135;0.18397141548611914;113.0;113.0;-0.15273918684991344;-0.4925733382638734;1.0284280754470134;-0.4093623621541157;-0.32804020100502457;0.375;0.475;0.505;0.525;0.855;0.0
155.0;0.96875;160.0;0.9411764705882353;170.0;1.0;170.0;1.0119047619047619;168.0;1.0059880239520957;167.0;0.9940476190476191;168.0;1.0632911392405062;;1.0193548387096774;230.0;-0.3555800504714112;0.1476457912311105;113.0;117.0;-0.2602254161497605;-0.5612537209787349;0.8111583674989462;-0.45160864790078536;-0.29646250379029876;0.33;0.47;0.49;0.515;0.82;0.0
160.0;0.9411764705882353;170.0;1.0;170.0;1.0119047619047619;168.0;1.05;167.0;0.9940476190476191;168.0;1.0632911392405062;158.0;1.0193548387096774;155.0;0.950920245398773;233.0;-0.3139943654536541;0.1619821670877209;117.0;116.0;-0.20822639509418644;-0.5373378441982858;0.9738894506569187;-0.4680512645030626;-0.24450156704417464;0.38;0.48;0.505;0.525;0.85;0.0
170.0;1.0;170.0;1.0119047619047619;168.0;1.05;160.0;0.9876543209876543;168.0;1.0632911392405062;158.0;1.0193548387096774;155.0;0.950920245398773;163.0;0.9644970414201184;233.0;-0.2856266164105749;0.16039801501178094;116.0;117.0;-0.17925371197716428;-0.4946840108407814;0.9930385370319023;-0.4251038508472691;-0.3035323769585191;0.385;0.48;0.5;0.52;0.785;0.0
170.0;1.0119047619047619;168.0;1.05;160.0;0.9876543209876543;162.0;1.0062111801242235;158.0;1.0193548387096774;155.0;0.950920245398773;163.0;0.9644970414201184;169.0;0.9883040935672515;227.0;-0.27931105104421317;0.1791356984867051;117.0;110.0;-0.14465726201250256;-0.49491270978285795;1.0960472197272204;-0.36850086004108423;-0.2695686106285384;0.4;0.495;0.52;0.545;0.85;0.0
168.0;1.05;160.0;0.9876543209876543;162.0;1.0062111801242235;161.0;0.9938271604938271;155.0;0.950920245398773;163.0;0.9644970414201184;169.0;0.9883040935672515;171.0;1.0426829268292683;218.0;-0.31367481896604654;0.13939495041575;110.0;108.0;-0.19408556131061344;-0.5173621117828899;0.834579291515176;-0.42762724191382473;-0.278303250664634;0.345;0.48;0.505;0.525;0.83;0.0
160.0;0.9876543209876543;162.0;1.0062111801242235;161.0;0.9938271604938271;162.0;1.0;163.0;0.9644970414201184;169.0;0.9883040935672515;171.0;1.0426829268292683;164.0;0.9704142011834319;222.0;-0.3004455087605533;0.14375897592894193;108.0;114.0;-0.23094868844790953;-0.46804136630938775;0.9121350684657359;-0.4139460206337297;-0.23886533176543895;0.38;0.47;0.49;0.51;0.83;0.0
162.0;1.0062111801242235;161.0;0.9938271604938271;162.0;1.0;162.0;0.9642857142857143;169.0;0.9883040935672515;171.0;1.0426829268292683;164.0;0.9704142011834319;169.0;1.05625;232.0;-0.2596636076365033;0.15716039474188676;114.0;118.0;-0.14775157456894514;-0.4161406558263474;1.0922224283949147;-0.3315556428601528;-0.20022730103629557;0.37;0.475;0.495;0.515;0.81;0.0
161.0;0.9938271604938271;162.0;1.0;162.0;0.9642857142857143;168.0;1.0059880239520957;171.0;1.0426829268292683;164.0;0.9704142011834319;169.0;1.05625;160.0;0.9815950920245399;237.0;-0.26387012900052575;0.14387888553881503;118.0;119.0;-0.15833602160012186;-0.4697384919919572;0.9517367670278079;-0.34412797821632535;-0.22488030211970972;0.38;0.48;0.5;0.52;0.8;0.0
162.0;1.0;162.0;0.9642857142857143;168.0;1.0059880239520957;167.0;0.9940476190476191;164.0;0.9704142011834319;169.0;1.05625;160.0;0.9815950920245399;163.0;1.0316455696202531;233.0;-0.3014416747073039;0.14350462740717518;119.0;114.0;-0.1850900273721305;-0.543914879301211;0.8223762433533603;-0.4061198664133518;-0.30288888037880346;0.385;0.49;0.515;0.535;0.855;0.0
162.0;0.9642857142857143;168.0;1.0059880239520957;167.0;0.9940476190476191;168.0;1.0632911392405062;169.0;1.05625;160.0;0.9815950920245399;163.0;1.0316455696202531;158.0;0.9813664596273292;232.0;-0.3147610987299969;0.14955766396306253;114.0;118.0;-0.2237251526345141;-0.5401366482212352;0.9196106501379634;-0.45017454014582603;-0.26078491880366095;0.335;0.47;0.495;0.515;0.79;0.0
168.0;1.0059880239520957;167.0;0.9940476190476191;168.0;1.0632911392405062;158.0;1.0193548387096774;160.0;0.9815950920245399;163.0;1.0316455696202531;158.0;0.9813664596273292;161.0;0.936046511627907;230.0;-0.27788041276199293;0.15823002715471646;118.0;112.0;-0.15818569281563563;-0.513615649632056;1.0197858210861295;-0.35164587750614773;-0.2401018054430526;0.39;0.49;0.515;0.535;0.82;0.0
167.0;0.9940476190476191;168.0;1.0632911392405062;158.0;1.0193548387096774;155.0;0.950920245398773;163.0;1.0316455696202531;158.0;0.9813664596273292;161.0;0.936046511627907;172.0;1.0058479532163742;226.0;-0.2915321545085417;0.14672097246341123;112.0;114.0;-0.1878785394555792;-0.5050965700647924;0.9104184896944651;-0.4110643745591839;-0.25649830257939704;0.38;0.475;0.495;0.515;0.81;0.0
168.0;1.0632911392405062;158.0;1.0193548387096774;155.0;0.950920245398773;163.0;0.9644970414201184;158.0;0.9813664596273292;161.0;0.936046511627907;172.0;1.0058479532163742;171.0;1.0178571428571428;224.0;-0.28797964579623164;0.1653571537916948;114.0;110.0;-0.17853584496873642;-0.5153032616837016;1.006881793427018;-0.36579172902710594;-0.25778126114976696;0.355;0.485;0.51;0.535;0.81;0.0
158.0;1.0193548387096774;155.0;0.950920245398773;163.0;0.9644970414201184;169.0;0.9883040935672515;161.0;0.936046511627907;172.0;1.0058479532163742;171.0;1.0178571428571428;168.0;1.0769230769230769;222.0;-0.3336863319517924;0.1452367354153946;110.0;112.0;-0.21783470404960276;-0.581352448332884;0.7852002368065393;-0.44532584233443795;-0.29177841926358655;0.335;0.47;0.495;0.52;0.815;0.0
155.0;0.950920245398773;163.0;0.9644970414201184;169.0;0.9883040935672515;171.0;1.0426829268292683;172.0;1.0058479532163742;171.0;1.0178571428571428;168.0;1.0769230769230769;156.0;0.975;232.0;-0.3141916261257153;0.15801319564740582;112.0;120.0;-0.22356304793827367;-0.522652012412736;0.9705217594834668;-0.5089309930302405;-0.2518001337274011;0.37;0.46;0.485;0.505;0.835;0.0
163.0;0.9644970414201184;169.0;0.9883040935672515;171.0;1.0426829268292683;164.0;0.9704142011834319;171.0;1.0178571428571428;168.0;1.0769230769230769;156.0;0.975;160.0;1.0;239.0;-0.2914904367340684;0.15220209228514162;120.0;119.0;-0.17866580445263922;-0.5221805899017329;0.9563778326531657;-0.4139573954970408;-0.26793031657225264;0.375;0.48;0.505;0.52;0.835;0.0
169.0;0.9883040935672515;171.0;1.0426829268292683;164.0;0.9704142011834319;169.0;1.05625;168.0;1.0769230769230769;156.0;0.975;160.0;1.0;160.0;0.9876543209876543;236.0;-0.3024095613280562;0.13965858217223062;119.0;117.0;-0.1814858866807567;-0.5316728535103181;0.8297875531781014;-0.44291693478163985;-0.27674641974888714;0.39;0.485;0.51;0.525;0.85;0.0
171.0;1.0426829268292683;164.0;0.9704142011834319;169.0;1.05625;160.0;0.9815950920245399;156.0;0.975;160.0;1.0;160.0;0.9876543209876543;162.0;0.9878048780487805;226.0;-0.34373460128579725;0.14025687023673208;117.0;109.0;-0.23749059111777043;-0.5538077376615475;0.7980344318880463;-0.4699347225313343;-0.33589073218748716;0.395;0.5;0.52;0.54;0.855;0.0
164.0;0.9704142011834319;169.0;1.05625;160.0;0.9815950920245399;163.0;1.0316455696202531;160.0;1.0;160.0;0.9876543209876543;162.0;0.9878048780487805;164.0;0.9820359281437125;221.0;-0.32501517845326106;0.15579669077929853;109.0;112.0;-0.2525149700973845;-0.5385862999504581;0.906656699562058;-0.4382066911772144;-0.22298222762861958;0.375;0.47;0.495;0.515;0.85;0.0
169.0;1.05625;160.0;0.9815950920245399;163.0;1.0316455696202531;158.0;0.9813664596273292;160.0;0.9876543209876543;162.0;0.9878048780487805;164.0;0.9820359281437125;167.0;0.9881656804733728;224.0;-0.25045634232777325;0.17678792570858326;112.0;112.0;-0.13923418138077787;-0.4263264414189766;1.1273230514910506;-0.3039941082710673;-0.22023183707932598;0.39;0.48;0.505;0.525;0.82;0.0
160.0;0.9815950920245399;163.0;1.0316455696202531;158.0;0.9813664596273292;161.0;0.936046511627907;162.0;0.9878048780487805;164.0;0.9820359281437125;167.0;0.9881656804733728;169.0;1.0304878048780488;225.0;-0.27047780257787607;0.1435481474955094;112.0;113.0;-0.15908182486617484;-0.49106571534117316;0.9316161493885509;-0.35066147042806245;-0.22684823639377863;0.375;0.48;0.5;0.52;0.835;0.0
163.0;1.0316455696202531;158.0;0.9813664596273292;161.0;0.936046511627907;172.0;1.0058479532163742;164.0;0.9820359281437125;167.0;0.9881656804733728;169.0;1.0304878048780488;164.0;1.0512820512820513;227.0;-0.30895411845377696;0.1367938675335138;113.0;114.0;-0.2190491916288167;-0.48166634108207756;0.7863596717800967;-0.42795542063124026;-0.2917702783492986;0.385;0.48;0.5;0.52;0.825;0.0
158.0;0.9813664596273292;161.0;0.936046511627907;172.0;1.0058479532163742;171.0;1.0178571428571428;167.0;0.9881656804733728;169.0;1.0304878048780488;164.0;1.0512820512820513;156.0;1.0129870129870129;230.0;-0.30951286236634346;0.1473032710982195;114.0;116.0;-0.25776515215390977;-0.46368918880497634;0.9191176405668641;-0.4380847358846722;-0.23150286200102066;0.37;0.48;0.5;0.52;0.83;0.0
161.0;0.936046511627907;172.0;;171.0;1.0178571428571428;168.0;1.0769230769230769;169.0;1.0304878048780488;164.0;1.0512820512820513;156.0;1.0129870129870129;154.0;0.9746835443037974;234.0;-0.2644665201209402;0.15781867553904266;116.0;118.0;-0.14014826306035832;-0.48333298386463647;1.056446637000169;-0.35481916298285604;-0.2243943531108257;0.38;0.475;0.5;0.52;0.82;0.0
172.0;1.0058479532163742;171.0;1.0178571428571428;168.0;1.0769230769230769;156.0;0.975;164.0;1.0512820512820513;156.0;1.0129870129870129;154.0;0.9746835443037974;158.0;0.9693251533742331;232.0;-0.2550815636890442;0.14482154806919417;118.0;114.0;-0.1546547756880164;-0.48805794969314054;0.9566496432376673;-0.32745500906652497;-0.2037647690669158;0.385;0.49;0.515;0.535;0.84;0.0
171.0;1.0178571428571428;168.0;1.0769230769230769;156.0;0.975;160.0;1.0;156.0;1.0129870129870129;154.0;0.9746835443037974;158.0;0.9693251533742331;163.0;0.9760479041916168;223.0;-0.2640029371163757;0.14125981936999168;114.0;109.0;-0.11070083616356971;-0.4168765677182629;0.9250562831019093;-0.3622996388213983;-0.26706355187488473;0.395;0.495;0.515;0.535;0.82;0.0
168.0;1.0769230769230769;156.0;0.975;160.0;1.0;160.0;0.9876543209876543;154.0;0.9746835443037974;158.0;0.9693251533742331;163.0;0.9760479041916168;167.0;0.9940476190476191;216.0;-0.3174766906729504;0.14040961309543182;109.0;107.0;-0.23575625607369022;-0.5464283330735114;0.8199570014239391;-0.44924398292899814;-0.28100672152349837;0.39;0.485;0.505;0.525;0.83;0.0
156.0;0.975;160.0;1.0;160.0;0.9876543209876543;162.0;0.9878048780487805;158.0;0.9693251533742331;163.0;0.9760479041916168;167.0;0.9940476190476191;168.0;1.0434782608695652;217.0;-0.27112578799217;0.1549195276582339;107.0;110.0;-0.16253550492359886;-0.4813723218846734;0.9959303104252137;-0.336170154893081;-0.20919191754788372;0.38;0.47;0.495;0.515;0.845;0.0
160.0;1.0;160.0;0.9876543209876543;162.0;0.9878048780487805;164.0;0.9820359281437125;163.0;0.9760479041916168;167.0;0.9940476190476191;168.0;1.0434782608695652;161.0;0.9938271604938271;224.0;-0.2616725410782162;0.15191277005385995;110.0;114.0;-0.13734080811066507;-0.4403721093755097;1.0375758972975837;-0.34281063086850383;-0.23053933575908492;0.37;0.475;0.495;0.515;0.825;0.0
160.0;0.9876543209876543;162.0;0.9878048780487805;164.0;0.9820359281437125;167.0;0.9881656804733728;167.0;0.9940476190476191;168.0;1.0434782608695652;161.0;0.9938271604938271;162.0;1.0318471337579618;230.0;-0.30066633804217174;0.15663913648353445;114.0;116.0;-0.19495110427544146;-0.5065990104183958;0.9158819139260703;-0.4435752645633746;-0.30358854956940284;0.385;0.475;0.5;0.52;0.86;0.0
162.0;0.9878048780487805;164.0;0.9820359281437125;167.0;0.9881656804733728;169.0;1.0304878048780488;168.0;1.0434782608695652;161.0;0.9938271604938271;162.0;1.0318471337579618;157.0;0.9874213836477987;233.0;-0.34439028413663025;0.14496259151863392;116.0;117.0;-0.25015668131563457;-0.5706087604659781;0.8007980737659446;-0.497145413006361;-0.29871755450287985;0.375;0.48;0.5;0.52;0.805;0.0
164.0;0.9820359281437125;167.0;0.9881656804733728;169.0;1.0304878048780488;164.0;1.0512820512820513;161.0;0.9938271604938271;162.0;1.0318471337579618;157.0;0.9874213836477987;159.0;0.99375;229.0;-0.2999878832982176;0.20330095882954344;117.0;112.0;-0.1780916001700874;-0.5108367650817073;1.2052020300579884;-0.42476340359917775;-0.26498071327576406;0.39;0.485;0.515;0.535;0.82;0.0
167.0;0.9881656804733728;169.0;1.0304878048780488;164.0;1.0512820512820513;156.0;1.0129870129870129;162.0;1.0318471337579618;157.0;0.9874213836477987;159.0;0.99375;160.0;0.9411764705882353;225.0;-0.34063707447287483;0.14608379445724876;112.0;113.0;-0.2291953048482278;-0.5415789886602715;0.8910533228911349;-0.4211984858033181;-0.3364011569599936;0.38;0.48;0.5;0.52;0.85;0.0
169.0;1.0304878048780488;164.0;1.0512820512820513;156.0;1.0129870129870129;154.0;0.9746835443037974;157.0;0.9874213836477987;159.0;0.99375;160.0;0.9411764705882353;170.0;1.0119047619047619;222.0;-0.36101493627382575;0.16173457084770573;113.0;109.0;-0.24715357229017185;-0.5354030111471355;0.8175804346654216;-0.44073475639952875;-0.34338351447752774;0.385;0.485;0.51;0.535;0.86;0.0
164.0;1.0512820512820513;156.0;1.0129870129870129;154.0;0.9746835443037974;158.0;0.9693251533742331;159.0;0.99375;160.0;0.9411764705882353;170.0;1.0119047619047619;168.0;0.9882352941176471;220.0;-0.41907892844276945;0.16404566019513128;109.0;111.0;-0.32584600137354036;-0.6293091257633985;0.8317259901944309;-0.5675359285879302;-0.40514414017577655;0.34;0.47;0.5;0.52;0.845;0.0
156.0;1.0129870129870129;154.0;0.9746835443037974;158.0;0.9693251533742331;163.0;0.9760479041916168;160.0;0.9411764705882353;170.0;1.0119047619047619;168.0;0.9882352941176471;170.0;1.0493827160493827;223.0;-0.3958669741054216;0.15444199069506326;111.0;112.0;-0.26790846545619523;-0.5889298037215096;0.8683645865767982;-0.47319179834166747;-0.320902635847889;0.345;0.48;0.5;0.52;0.82;0.0
154.0;0.9746835443037974;158.0;0.9693251533742331;163.0;0.9760479041916168;167.0;0.9940476190476191;170.0;1.0119047619047619;168.0;0.9882352941176471;170.0;1.0493827160493827;162.0;1.0451612903225806;230.0;-0.3477532374438873;0.1922536617826863;112.0;118.0;-0.2532667620721715;-0.5673097976572614;1.0668368839368536;-0.43847237717117615;-0.30184706531495714;0.37;0.465;0.495;0.515;0.8;0.0
158.0;0.9693251533742331;163.0;0.9760479041916168;167.0;0.9940476190476191;168.0;1.0434782608695652;168.0;0.9882352941176471;170.0;1.0493827160493827;162.0;1.0451612903225806;155.0;0.96875;235.0;-0.3701697456012234;0.13815730342773783;118.0;117.0;-0.22806084166038104;-0.592724481604554;0.7396369122000892;-0.5081409997832678;-0.3424893026601046;0.385;0.48;0.5;0.52;0.82;0.0
163.0;0.9760479041916168;167.0;0.9940476190476191;168.0;1.0434782608695652;161.0;0.9938271604938271;170.0;1.0493827160493827;162.0;1.0451612903225806;155.0;0.96875;160.0;1.0;235.0;-0.3999695081318698;0.1430391437743067;117.0;118.0;-0.27769373005267994;-0.6054930459639349;0.6938354119546863;-0.5648639956599757;-0.3598487988402188;0.375;0.475;0.495;0.515;0.825;0.0
167.0;0.9940476190476191;168.0;1.0434782608695652;161.0;0.9938271604938271;162.0;1.0318471337579618;162.0;1.0451612903225806;155.0;0.96875;160.0;1.0;160.0;0.975609756097561;231.0;-0.35256361310885426;0.2099951477412478;118.0;113.0;-0.2585848194564615;-0.5511669697899227;1.0784628287527673;-0.4319638644781361;-0.33670685424766517;0.395;0.485;0.515;0.54;0.8;0.0
168.0;1.0434782608695652;161.0;0.9938271604938271;162.0;1.0318471337579618;157.0;0.9874213836477987;155.0;0.96875;160.0;1.0;160.0;0.975609756097561;164.0;0.9704142011834319;221.0;-0.36114609682409354;0.15607500426062912;113.0;108.0;-0.2278307487101376;-0.5811240915088076;0.9151584143092527;-0.4324780127522503;-0.31445402448598725;0.39;0.49;0.515;0.535;0.82;0.0
161.0;0.9938271604938271;162.0;1.0318471337579618;157.0;0.9874213836477987;159.0;0.99375;160.0;1.0;160.0;0.975609756097561;164.0;0.9704142011834319;169.0;1.0;220.0;-0.3661131928118765;0.18204864431062687;108.0;112.0;-0.24819448102066316;-0.570705264292199;1.0406905664900072;-0.5304702099617445;-0.3443078137183559;0.375;0.47;0.495;0.52;0.81;0.0
162.0;1.0318471337579618;157.0;0.9874213836477987;159.0;0.99375;160.0;0.9411764705882353;160.0;0.975609756097561;164.0;0.9704142011834319;169.0;1.0;169.0;1.049689440993789;224.0;-0.4196659415188414;0.18984232216534805;112.0;112.0;-0.2898121872327376;-0.632584306369472;0.8582906853101108;-0.5528977545825382;-0.4199438881310322;0.34;0.47;0.5;0.525;0.86;0.0
157.0;0.9874213836477987;159.0;0.99375;160.0;0.9411764705882353;170.0;1.0119047619047619;164.0;0.9704142011834319;169.0;1.0;169.0;1.049689440993789;161.0;0.9938271604938271;226.0;-0.40697463308347687;0.16484901408631303;112.0;114.0;-0.32666936935879354;-0.5659679369040198;0.8732215395442049;-0.5208439181183087;-0.30431163998945004;0.37;0.475;0.495;0.515;0.835;0.0
159.0;0.99375;160.0;0.9411764705882353;170.0;1.0119047619047619;168.0;0.9882352941176471;169.0;1.0;169.0;1.049689440993789;161.0;0.9938271604938271;162.0;1.0384615384615385;232.0;-0.3302071957098771;0.16189685084625158;114.0;118.0;-0.22037240703365438;-0.5373232118700915;1.0048959975405414;-0.41428583367247374;-0.2786253210687983;0.375;0.47;0.49;0.51;0.845;0.0
160.0;0.9411764705882353;170.0;1.0119047619047619;168.0;0.9882352941176471;170.0;1.0493827160493827;169.0;1.049689440993789;161.0;0.9938271604938271;162.0;1.0384615384615385;156.0;1.0196078431372548;236.0;-0.2997206144774164;0.1536782356213372;118.0;118.0;-0.20467438358779688;-0.44915975897561145;1.0025861323918326;-0.37268024667698796;-0.2611091956874146;0.38;0.48;0.5;0.52;0.825;0.0
170.0;1.0119047619047619;168.0;0.9882352941176471;170.0;1.0493827160493827;162.0;1.0451612903225806;161.0;0.9938271604938271;162.0;1.0384615384615385;156.0;1.0196078431372548;153.0;0.9386503067484663;230.0;-0.33769823686500133;0.14567966327599027;118.0;112.0;-0.21598877864152496;-0.6168656097024947;0.7735999657591905;-0.47036106048986964;-0.32424479825218155;0.39;0.485;0.515;0.535;0.84;0.0
168.0;0.9882352941176471;170.0;1.0493827160493827;162.0;1.0451612903225806;155.0;0.96875;162.0;1.0384615384615385;156.0;1.0196078431372548;153.0;0.9386503067484663;163.0;1.0;225.0;-0.3760743259557194;0.147897845373786;112.0;113.0;-0.2619750731859199;-0.5787004243701966;0.8054467709234201;-0.5362795746804777;-0.32686035143471204;0.345;0.48;0.5;0.525;0.825;0.0
170.0;1.0493827160493827;162.0;1.0451612903225806;155.0;0.96875;160.0;1.0;156.0;1.0196078431372548;153.0;0.9386503067484663;163.0;1.0;163.0;0.9878787878787879;222.0;-0.31580887239368854;0.16969850251120017;113.0;109.0;-0.18455731863436228;-0.5127719692629816;1.0057516768194494;-0.4271438646000427;-0.25978164079851856;0.4;0.49;0.51;0.535;0.835;0.0
162.0;1.0451612903225806;155.0;0.96875;160.0;1.0;160.0;0.975609756097561;153.0;0.9386503067484663;163.0;1.0;163.0;0.9878787878787879;165.0;1.0248447204968945;216.0;-0.3135099807522091;0.15532128128498993;109.0;107.0;-0.21264115347530183;-0.5530667881332407;0.9560132134230033;-0.3869253890655031;-0.2953095225147022;0.385;0.48;0.51;0.53;0.84;0.0
155.0;0.96875;160.0;1.0;160.0;0.975609756097561;164.0;0.9704142011834319;163.0;1.0;163.0;0.9878787878787879;165.0;1.0248447204968945;161.0;1.018987341772152;221.0;-0.3415352891966619;0.1431616932874995;107.0;114.0;-0.2402089021365021;-0.5685519791510827;0.8429179116615859;-0.45727031321558564;-0.3008704193865183;0.365;0.465;0.485;0.505;0.815;0.0
160.0;1.0;160.0;0.975609756097561;164.0;0.9704142011834319;169.0;1.0;163.0;0.9878787878787879;165.0;1.0248447204968945;161.0;1.018987341772152;158.0;1.025974025974026;228.0;-0.3804481863018235;0.17205198095802793;114.0;114.0;-0.2703689399974508;-0.6372815625573931;0.8466290547715228;-0.4791635752957532;-0.37656177851696826;0.37;0.47;0.505;0.53;0.825;0.0
160.0;0.975609756097561;164.0;0.9704142011834319;169.0;1.0;169.0;1.049689440993789;165.0;1.0248447204968945;161.0;1.018987341772152;158.0;1.025974025974026;154.0;0.9685534591194969;229.0;-0.3918386905338952;0.1606394982779473;114.0;115.0;-0.323557633464013;-0.6146989354690084;0.8133295507835718;-0.4951498889740441;-0.3087120124912485;0.375;0.475;0.5;0.525;0.825;0.0
164.0;0.9704142011834319;169.0;1.0;169.0;1.049689440993789;161.0;0.9938271604938271;161.0;1.018987341772152;158.0;1.025974025974026;154.0;0.9685534591194969;159.0;1.0;227.0;-0.35038453744696796;0.1643948238436123;115.0;112.0;-0.23830899528958088;-0.5813673929291876;0.9891145771509153;-0.4170805482801242;-0.3011289913095183;0.385;0.485;0.51;0.53;0.855;0.0
169.0;1.0;169.0;1.049689440993789;161.0;0.9938271604938271;162.0;1.0384615384615385;158.0;1.025974025974026;154.0;0.9685534591194969;159.0;1.0;159.0;1.0;222.0;-0.33921708593649685;0.15422062806996864;112.0;110.0;-0.25403065440585654;-0.5622603152446184;0.9291683813772631;-0.4320892786631251;-0.3170844695241757;0.38;0.48;0.505;0.525;0.885;0.0
169.0;1.049689440993789;161.0;0.9938271604938271;162.0;1.0384615384615385;156.0;1.0196078431372548;154.0;0.9685534591194969;159.0;1.0;159.0;1.0;159.0;0.9352941176470588;217.0;-0.3343760765461177;0.1818894629626813;110.0;107.0;-0.23302164075281773;-0.5526434651585979;0.9799649247606668;-0.4357345018806686;-0.3290802832802003;0.39;0.48;0.51;0.535;0.83;0.0
161.0;0.9938271604938271;162.0;1.0384615384615385;156.0;1.0196078431372548;153.0;0.9386503067484663;159.0;1.0;159.0;1.0;159.0;0.9352941176470588;170.0;1.0365853658536586;218.0;-0.33788269675676263;0.148444715483014;107.0;111.0;-0.2557219818928731;-0.5358010172934771;0.8263339175107337;-0.4483288355115994;-0.24520199053780078;0.335;0.47;0.49;0.515;0.87;0.0
162.0;1.0384615384615385;156.0;1.0196078431372548;153.0;0.9386503067484663;163.0;1.0;159.0;1.0;159.0;0.9352941176470588;170.0;1.0365853658536586;164.0;1.0123456790123457;222.0;-0.22742079584893116;0.18834484816977626;111.0;111.0;-0.12590563037650038;-0.40839465284048726;1.1582176567065448;-0.2810028638025115;-0.17381179082872888;0.385;0.475;0.505;0.525;0.83;0.0
156.0;1.0196078431372548;153.0;0.9386503067484663;163.0;1.0;163.0;0.9878787878787879;159.0;0.9352941176470588;170.0;1.0365853658536586;164.0;1.0123456790123457;162.0;1.0125;222.0;;0.15284998533099473;111.0;111.0;-0.11510140988853079;-0.42006870060089363;1.0241319692517405;-0.32177747341019514;-0.22280973086827427;0.37;0.48;0.5;0.52;0.82;0.0
153.0;0.9386503067484663;163.0;1.0;163.0;0.9878787878787879;165.0;1.0248447204968945;170.0;1.0365853658536586;164.0;1.0123456790123457;162.0;1.0125;160.0;1.391304347826087;229.0;-0.2914696746924866;0.14978356420461492;111.0;118.0;-0.15735785426242804;-0.4961869212694605;0.885117384939384;-0.45013931628771486;-0.2849379799963781;0.325;0.465;0.485;0.505;0.79;0.0
163.0;1.0;163.0;0.9878787878787879;165.0;1.0248447204968945;161.0;1.018987341772152;164.0;1.0123456790123457;162.0;1.0125;160.0;1.391304347826087;115.0;0.6020942408376964;232.0;-0.37302215998253907;0.14499308794873608;118.0;114.0;-0.25183802836603986;-0.5939831469846004;0.7447697231518533;-0.4942309351857922;-0.3742073857250036;0.35;0.49;0.515;0.535;0.835;0.0
163.0;0.9878787878787879;165.0;1.0248447204968945;161.0;1.018987341772152;158.0;1.025974025974026;162.0;1.0125;160.0;1.391304347826087;115.0;0.6020942408376964;191.0;1.1169590643274854;227.0;-0.36987515278232175;0.18022087475882947;114.0;113.0;-0.28117101537388867;-0.5814758756302715;0.9648225003953375;-0.5172156561673125;-0.3218020120042689;0.37;0.48;0.505;0.53;0.88;0.0
165.0;1.0248447204968945;161.0;1.018987341772152;158.0;1.025974025974026;154.0;0.9685534591194969;160.0;1.391304347826087;115.0;0.6020942408376964;191.0;1.1169590643274854;171.0;1.0118343195266273;225.0;-0.339870410748563;0.16733947659364512;113.0;112.0;-0.23106429273566478;-0.5616680079826695;1.028478313347185;-0.44412228737513987;-0.29225410256431317;0.36;0.48;0.505;0.525;0.83;0.0
161.0;1.018987341772152;158.0;1.025974025974026;154.0;0.9685534591194969;159.0;1.0;115.0;0.6020942408376964;191.0;1.1169590643274854;171.0;1.0118343195266273;169.0;1.0;192.0;-0.3325300973410832;0.1587607147498147;112.0;80.0;-0.24419145443227763;-0.5495505104293483;0.862579796905441;-0.43320985032582326;-0.26451489908537384;0.44;0.56;0.585;0.61;0.99;0.0
154.0;0.9685534591194969;159.0;1.0;159.0;1.0;159.0;0.9352941176470588;171.0;1.0118343195266273;169.0;1.0;169.0;1.0;169.0;1.049689440993789;252.0;-0.38994047704768325;0.1454425211417646;133.0;119.0;-0.3314440084538256;-0.6516310258667597;0.8105150173140007;-0.5101598489549822;-0.28808602483035456;0.39;0.505;0.53;0.55;0.85;0.0
159.0;1.0;159.0;1.0;159.0;0.9352941176470588;170.0;1.0365853658536586;169.0;1.0;169.0;1.0;169.0;1.049689440993789;161.0;1.0454545454545454;237.0;-0.31677618364858406;0.15936605339687387;119.0;118.0;-0.20644362103941769;-0.5353900266524072;0.9918282811575969;-0.43756908192681765;-0.2711947301551322;0.385;0.48;0.505;0.52;0.81;0.0
159.0;1.0;159.0;0.9352941176470588;170.0;1.0365853658536586;164.0;1.0123456790123457;169.0;1.0;169.0;1.049689440993789;161.0;1.0454545454545454;154.0;0.9685534591194969;236.0;-0.3192928821952402;0.15116116641412988;118.0;118.0;-0.20298954556662333;-0.5147662404634967;0.9089731498565327;-0.4280368814735611;-0.29981937902469596;0.385;0.48;0.5;0.52;0.785;0.0
159.0;0.9352941176470588;170.0;1.0365853658536586;164.0;1.0123456790123457;162.0;1.0125;169.0;1.049689440993789;161.0;1.0454545454545454;154.0;0.9685534591194969;159.0;1.0192307692307692;236.0;-0.3504082056128667;0.13951623518741343;118.0;118.0;-0.215;-0.5221770635128393;0.8001543493887491;-0.4554349984855137;-0.337237141855459;0.34;0.48;0.5;0.52;0.805;0.0
170.0;1.0365853658536586;164.0;1.0123456790123457;162.0;1.0125;160.0;1.391304347826087;161.0;1.0454545454545454;154.0;0.9685534591194969;159.0;1.0192307692307692;156.0;0.9285714285714286;230.0;-0.3536360842827345;0.17686939081751266;118.0;112.0;-0.2666177152562911;-0.5817021592866249;0.9806138514678869;-0.5098658574458795;-0.2975207419269091;0.355;0.485;0.515;0.535;0.83;0.0
164.0;1.0123456790123457;162.0;1.0125;160.0;1.391304347826087;115.0;0.6020942408376964;154.0;0.9685534591194969;159.0;1.0192307692307692;156.0;0.9285714285714286;168.0;0.9824561403508771;219.0;-0.2852440339540804;0.17435123507266187;112.0;107.0;-0.1993493319453429;-0.5051911166411559;1.049802486225368;-0.384793842740831;-0.20681321104063893;0.345;0.49;0.515;0.535;0.825;0.0
162.0;1.0125;160.0;1.391304347826087;115.0;0.6020942408376964;191.0;1.1169590643274854;159.0;1.0192307692307692;156.0;0.9285714285714286;168.0;0.9824561403508771;171.0;1.0301204819277108;218.0;-0.23955595731474;0.15435262687011025;107.0;111.0;-0.12885974223076888;-0.45802875705052604;1.0151667255577046;-0.3108026395208525;-0.1813164030259688;0.37;0.47;0.495;0.515;0.835;0.0
160.0;1.391304347826087;115.0;0.6020942408376964;191.0;1.1169590643274854;171.0;1.0118343195266273;156.0;0.9285714285714286;168.0;0.9824561403508771;171.0;1.0301204819277108;166.0;1.064102564102564;220.0;-0.23379495397570388;0.14362727396798208;111.0;109.0;-0.1252521701273783;-0.5489224284509814;0.9068003488603118;-0.2944394161630417;-0.1964517390627127;0.38;0.48;0.51;0.53;0.865;0.0
115.0;0.6020942408376964;191.0;1.1169590643274854;171.0;1.0118343195266273;169.0;1.0;168.0;0.9824561403508771;171.0;1.0301204819277108;166.0;1.064102564102564;156.0;0.975;226.0;-0.28794394437438614;0.18194962214911148;109.0;117.0;-0.1792463678084465;-0.5047800768093491;0.9923065738664698;-0.4361817929028865;-0.28927818050451787;0.365;0.46;0.485;0.51;0.82;0.0
191.0;1.1169590643274854;171.0;1.0118343195266273;169.0;1.0;169.0;1.0;171.0;1.0301204819277108;166.0;1.064102564102564;156.0;0.975;160.0;1.0062893081761006;236.0;-0.3010224184736062;0.1555168397859295;117.0;119.0;-0.22212916694035573;-0.547245245893884;0.9693078206054535;-0.36816471860037464;-0.22995988816673732;0.375;0.475;0.5;0.52;0.84;0.0
171.0;1.0118343195266273;169.0;1.0;169.0;1.0;169.0;1.049689440993789;166.0;1.064102564102564;156.0;0.975;160.0;1.0062893081761006;159.0;1.325;235.0;-0.26073126236929434;0.16175700574151;119.0;116.0;-0.1424944969181372;-0.4266600630002218;1.1269527649379916;-0.3210594458843077;-0.22070773440415253;0.39;0.49;0.51;0.53;0.82;0.0
169.0;1.0;169.0;1.0;169.0;1.049689440993789;161.0;1.0454545454545454;156.0;0.975;160.0;1.0062893081761006;159.0;1.325;120.0;0.6349206349206349;225.0;-0.27289177501772444;0.14862730384147044;116.0;109.0;-0.15141669777605996;-0.47912654795541076;0.9907953228339973;-0.37607009010109294;-0.22002598527300116;0.39;0.495;0.515;0.535;0.835;0.0
169.0;1.0;169.0;1.049689440993789;161.0;1.0454545454545454;154.0;0.9685534591194969;160.0;1.0062893081761006;159.0;1.325;120.0;0.6349206349206349;189.0;1.1595092024539877;221.0;-0.29633113034785974;0.1441146798301386;109.0;112.0;-0.15234378726144976;-0.5295644338200479;0.8152858881660248;-0.41112119550442483;-0.28988181837847116;0.34;0.475;0.5;0.52;0.88;0.0
169.0;1.049689440993789;161.0;1.0454545454545454;154.0;0.9685534591194969;159.0;1.0192307692307692;159.0;1.325;120.0;0.6349206349206349;189.0;1.1595092024539877;163.0;0.9760479041916168;223.0;-0.3151706485508058;0.14999558176598232;112.0;111.0;-0.2239624893522303;-0.50194336325736;0.8936560045044342;-0.45902116568122664;-0.25290414893383206;0.335;0.485;0.505;0.525;0.87;0.0
161.0;1.0454545454545454;154.0;0.9685534591194969;159.0;1.0192307692307692;156.0;0.9285714285714286;120.0;0.6349206349206349;189.0;1.1595092024539877;163.0;0.9760479041916168;167.0;1.0182926829268293;195.0;-0.25720765272187973;0.17917478355985836;111.0;84.0;-0.14149307833364166;-0.4623918388561488;1.1242939677630082;-0.3236702711960491;-0.19419667965237347;0.43;0.545;0.57;0.595;0.93;0.0
159.0;1.0192307692307692;156.0;0.9285714285714286;168.0;0.9824561403508771;171.0;1.0301204819277108;163.0;0.9760479041916168;167.0;1.0182926829268293;164.0;1.0718954248366013;153.0;1.02;246.0;-0.30067381325236625;0.15476172856852197;132.0;114.0;-0.15295985780310833;-0.48740782073316957;0.9286302191311309;-0.4948943582671481;-0.2960723166888278;0.395;0.515;0.535;0.56;0.865;0.0
156.0;0.9285714285714286;168.0;0.9824561403508771;171.0;1.0301204819277108;166.0;1.064102564102564;167.0;1.0182926829268293;164.0;1.0718954248366013;153.0;1.02;150.0;0.9259259259259259;230.0;-0.3791459031399609;0.14924947912308795;114.0;116.0;-0.26124967233758695;-0.613079610371693;0.7732163738811184;-0.4860648368412711;-0.33117918022398024;0.375;0.475;0.5;0.52;0.82;0.0
168.0;0.9824561403508771;171.0;1.0301204819277108;166.0;1.064102564102564;156.0;0.975;164.0;1.0718954248366013;153.0;1.02;150.0;0.9259259259259259;162.0;1.0253164556962024;230.0;-0.36896047948732325;0.16428296038106893;116.0;114.0;-0.2726367579820023;-0.5449188411277087;0.9308965854263775;-0.4913296169911593;-0.30522034727273184;0.385;0.485;0.505;0.525;0.885;0.0
171.0;1.0301204819277108;166.0;1.064102564102564;156.0;0.975;160.0;1.0062893081761006;153.0;1.02;150.0;0.9259259259259259;162.0;1.0253164556962024;158.0;0.9634146341463414;221.0;-0.34608296088378687;0.15346809832379799;114.0;107.0;-0.2299458191491841;-0.572752839996903;0.9589461847007165;-0.45737367958638137;-0.31978034510436326;0.4;0.495;0.52;0.535;0.865;0.0
166.0;1.064102564102564;156.0;0.975;160.0;1.0062893081761006;159.0;1.325;150.0;0.9259259259259259;162.0;1.0253164556962024;158.0;0.9634146341463414;164.0;0.9879518072289156;212.0;-0.37402809788278546;0.14061792600024128;107.0;105.0;-0.2555333977744536;-0.6122192104542844;0.7493341962129008;-0.44626321888882053;-0.35562234417300703;0.385;0.485;0.51;0.53;0.82;0.0
156.0;0.975;160.0;1.0062893081761006;159.0;1.325;120.0;0.6349206349206349;162.0;1.0253164556962024;158.0;0.9634146341463414;164.0;0.9879518072289156;166.0;1.0246913580246915;218.0;-0.44257241019543925;0.15136497416203837;105.0;113.0;-0.3133402702817004;-0.5944089738862411;0.7415672885944341;-0.5829655466947075;-0.41869737223160675;0.32;0.465;0.485;0.505;0.85;0.0
160.0;1.0062893081761006;159.0;1.325;120.0;0.6349206349206349;189.0;1.1595092024539877;158.0;0.9634146341463414;164.0;0.9879518072289156;166.0;1.0246913580246915;162.0;0.9818181818181818;223.0;-0.40942216145783195;0.189017550054372;113.0;110.0;-0.3056146717314107;-0.5998591501271792;0.93052126561858;-0.5225674400791332;-0.3493258938784031;0.34;0.48;0.51;0.53;0.83;0.0
159.0;1.325;120.0;0.6349206349206349;189.0;1.1595092024539877;163.0;0.9760479041916168;164.0;0.9879518072289156;166.0;1.0246913580246915;162.0;0.9818181818181818;165.0;1.03125;224.0;-0.3735435995009651;0.16026407646738086;110.0;114.0;-0.2696247039894389;-0.5757312522785938;0.9369538270605328;-0.42397195330476506;-0.326485607530524;0.365;0.47;0.495;0.515;0.835;0.0
120.0;0.6349206349206349;189.0;1.1595092024539877;163.0;0.9760479041916168;167.0;1.0182926829268293;166.0;1.0246913580246915;162.0;0.9818181818181818;165.0;1.03125;160.0;1.0457516339869282;230.0;-0.3345962023491281;0.15378294433082024;114.0;116.0;-0.213328929791038;-0.5770555553374177;0.9529374250769447;-0.4252564288304307;-0.2917149516060113;0.34;0.475;0.5;0.52;0.86;0.0
189.0;1.1595092024539877;163.0;0.9760479041916168;167.0;1.0182926829268293;164.0;1.0718954248366013;162.0;0.9818181818181818;165.0;1.03125;160.0;1.0457516339869282;153.0;0.9870967741935484;229.0;-0.3582254377396342;0.1460755861145388;116.0;113.0;-0.2280170786173477;-0.5562927866304691;0.792643157068141;-0.46041529227247574;-0.343384607210383;0.34;0.485;0.51;0.53;0.815;0.0
163.0;0.9760479041916168;167.0;1.0182926829268293;164.0;1.0718954248366013;153.0;1.02;165.0;1.03125;160.0;1.0457516339869282;153.0;0.9870967741935484;155.0;0.9064327485380117;228.0;-0.35617562844232986;0.15553039353543494;113.0;115.0;-0.27046650788987797;-0.5301105053529613;0.9309607471991314;-0.42129041316058985;-0.29676628049753273;0.375;0.475;0.495;0.52;0.81;0.0
167.0;1.0182926829268293;164.0;1.0718954248366013;153.0;1.02;150.0;0.9259259259259259;160.0;1.0457516339869282;153.0;0.9870967741935484;155.0;0.9064327485380117;171.0;1.0301204819277108;227.0;-0.3289105999725953;0.1683997638838004;115.0;112.0;-0.19634006478796884;-0.4991921536981908;1.0768867116679812;-0.39355039407961667;-0.2937868243268352;0.39;0.49;0.51;0.53;0.8;0.0
164.0;1.0718954248366013;153.0;1.02;150.0;0.9259259259259259;162.0;1.0253164556962024;153.0;0.9870967741935484;155.0;0.9064327485380117;171.0;1.0301204819277108;166.0;1.01840490797546;219.0;-0.33049334226646365;0.15122404455601826;112.0;107.0;-0.20731141445691686;-0.5523204537021551;0.8920625075014192;-0.41996277122645487;-0.29939285821354117;0.39;0.49;0.51;0.53;0.805;0.0
153.0;1.02;150.0;0.9259259259259259;162.0;1.0253164556962024;158.0;0.9634146341463414;155.0;0.9064327485380117;171.0;1.0301204819277108;166.0;1.01840490797546;163.0;1.01875;215.0;-0.3580042845877841;0.14230488363287572;107.0;108.0;-0.237878074112749;-0.5844957637641246;0.7414873705820859;-0.43900553058670827;-0.3494721380436315;0.385;0.48;0.505;0.525;0.84;0.0
150.0;0.9259259259259259;162.0;1.0253164556962024;158.0;0.9634146341463414;164.0;0.9879518072289156;171.0;1.0301204819277108;166.0;1.01840490797546;163.0;1.01875;160.0;1.019108280254777;227.0;-0.3781853197061983;0.15401189500292703;108.0;119.0;-0.292120743744931;-0.6085282871928306;0.9043206220397859;-0.5087767247718514;-0.3033355732324329;0.355;0.455;0.48;0.5;0.84;0.0
162.0;1.0253164556962024;158.0;0.9634146341463414;164.0;0.9879518072289156;166.0;1.0246913580246915;166.0;1.01840490797546;163.0;1.01875;160.0;1.019108280254777;157.0;1.0;235.0;-0.3205034506278393;0.17028758790748655;119.0;116.0;-0.1966538009178781;-0.5394998160964569;1.0266180419264512;-0.37035744942556087;-0.2573231128604454;0.345;0.485;0.51;0.53;0.855;0.0
158.0;0.9634146341463414;164.0;0.9879518072289156;166.0;1.0246913580246915;162.0;0.9818181818181818;163.0;1.01875;160.0;1.019108280254777;157.0;1.0;157.0;0.9751552795031055;230.0;-0.3036142054313934;0.16322560688226365;116.0;114.0;-0.18659372619532755;-0.5291881751203092;1.0294532692097114;-0.4035782681357054;-0.27613231967633123;0.375;0.48;0.505;0.525;0.86;0.0
164.0;0.9879518072289156;166.0;1.0246913580246915;162.0;0.9818181818181818;165.0;1.03125;160.0;1.019108280254777;157.0;1.0;157.0;0.9751552795031055;161.0;1.0125786163522013;226.0;-0.3062874492025266;0.14655627152994516;114.0;112.0;-0.17578875057093787;-0.5139988913887907;0.8646598849890104;-0.39489227988134873;-0.2635436989410529;0.345;0.485;0.51;0.53;0.87;0.0
166.0;1.0246913580246915;162.0;0.9818181818181818;165.0;1.03125;;1.0457516339869282;157.0;1.0;157.0;0.9751552795031055;161.0;1.0125786163522013;159.0;0.9695121951219512;221.0;-0.3325918682248355;0.15748747308030672;112.0;109.0;-0.2389315783262924;-0.546318467146976;0.9371537241091497;-0.4857995787530135;-0.28417273366152285;0.385;0.485;0.51;0.53;0.895;0.0
162.0;0.9818181818181818;165.0;1.03125;160.0;1.0457516339869282;153.0;0.9870967741935484;157.0;0.9751552795031055;161.0;1.0125786163522013;159.0;0.9695121951219512;164.0;0.9647058823529412;218.0;-0.304840609644187;0.18327178878451938;109.0;109.0;-0.18625719643651897;-0.49542273176149765;1.0746474400761734;-0.360126768464455;-0.2776801616518632;0.38;0.475;0.505;0.525;0.875;0.0
165.0;1.03125;160.0;1.0457516339869282;153.0;0.9870967741935484;155.0;0.9064327485380117;161.0;1.0125786163522013;159.0;0.9695121951219512;164.0;0.9647058823529412;170.0;1.0240963855421688;221.0;-0.29332144551139067;0.17449396889333743;109.0;112.0;-0.16786432787069083;-0.5358317991126837;1.1292137280356829;-0.460883853917748;-0.26101472195887004;0.375;0.47;0.495;0.515;0.865;0.0
160.0;1.0457516339869282;153.0;0.9870967741935484;155.0;0.9064327485380117;171.0;1.0301204819277108;159.0;0.9695121951219512;164.0;0.9647058823529412;170.0;1.0240963855421688;166.0;1.070967741935484;223.0;-0.29301422583951797;0.15074273205739205;112.0;111.0;-0.17908659657311463;-0.4807595283586509;0.9999312145865442;-0.37065521202856466;-0.26214941934687597;0.38;0.485;0.505;0.525;0.82;0.0
153.0;0.9870967741935484;155.0;0.9064327485380117;171.0;1.0301204819277108;166.0;1.01840490797546;164.0;0.9647058823529412;170.0;1.0240963855421688;166.0;1.070967741935484;155.0;1.0402684563758389;225.0;-0.3157100665225204;0.15118920104316044;111.0;114.0;-0.19321331089188207;-0.5584351411633939;0.8935809138714526;-0.4500796019117813;-0.2764824120603016;0.335;0.47;0.495;0.515;0.81;0.0
155.0;0.9064327485380117;171.0;1.0301204819277108;166.0;1.01840490797546;163.0;1.01875;170.0;1.0240963855421688;166.0;1.070967741935484;155.0;1.0402684563758389;149.0;0.9933333333333333;232.0;-0.34168502253911703;0.1769039389173804;114.0;118.0;-0.2416829076993836;-0.561039999755122;0.9874184886751738;-0.4420439093255789;-0.28448102435500167;0.33;0.465;0.495;0.52;0.83;0.0
171.0;1.0301204819277108;166.0;1.01840490797546;163.0;1.01875;160.0;1.019108280254777;166.0;1.070967741935484;155.0;1.0402684563758389;149.0;0.9933333333333333;150.0;0.967741935483871;234.0;-0.3239047976900223;0.190341041870437;118.0;116.0;-0.22055541281868613;-0.5243604749020032;1.0612006461519259;-0.4443994561510411;-0.2543493347976391;0.33;0.48;0.51;0.53;0.865;0.0
166.0;1.01840490797546;163.0;1.01875;160.0;1.019108280254777;157.0;1.0;155.0;1.0402684563758389;149.0;0.9933333333333333;150.0;0.967741935483871;155.0;0.96875;224.0;-0.2577297480163358;0.18555731284847363;116.0;108.0;-0.13717198705399217;-0.4724136399462694;1.2215425435549117;-0.326177708146824;-0.19985981363278643;0.395;0.495;0.52;0.54;0.855;0.0
163.0;1.01875;160.0;1.019108280254777;157.0;1.0;157.0;0.9751552795031055;149.0;0.9933333333333333;150.0;0.967741935483871;155.0;0.96875;160.0;0.9876543209876543;212.0;-0.295785588519999;0.1550499421418098;108.0;104.0;-0.18607653705306693;-0.5615251491660718;0.9469275175454213;-0.41444633464968966;-0.28524843117827686;0.38;0.485;0.51;0.53;0.89;0.0
160.0;1.019108280254777;157.0;1.0;157.0;0.9751552795031055;161.0;1.0125786163522013;150.0;0.967741935483871;155.0;0.96875;160.0;0.9876543209876543;162.0;1.0125;209.0;-0.3346724209708013;0.14075369084962475;104.0;105.0;-0.21512705165123658;-0.5539340357742711;0.8204753790994397;-0.4836989379614805;-0.30018313325306106;0.37;0.475;0.5;0.52;0.84;0.0
157.0;1.0;157.0;0.9751552795031055;161.0;1.0125786163522013;159.0;0.9695121951219512;155.0;0.96875;160.0;0.9876543209876543;162.0;1.0125;160.0;0.9815950920245399;213.0;-0.324820754601294;0.13376431934460634;105.0;108.0;-0.21811370490053494;-0.5605115515986612;0.7474443626891718;-0.4074586974319246;-0.2759419903864003;0.33;0.47;0.49;0.515;0.815;0.0
157.0;0.9751552795031055;161.0;1.0125786163522013;159.0;0.9695121951219512;164.0;0.9647058823529412;160.0;0.9876543209876543;162.0;1.0125;160.0;0.9815950920245399;163.0;1.044871794871795;220.0;-0.3069245206238174;0.1485137368296145;108.0;112.0;-0.18241511035266095;-0.4963601962679539;0.9280150710630815;-0.4713186249505163;-0.26672200570177096;0.335;0.47;0.49;0.51;0.825;0.0
161.0;1.0125786163522013;159.0;0.9695121951219512;164.0;0.9647058823529412;170.0;1.0240963855421688;162.0;1.0125;160.0;0.9815950920245399;163.0;1.044871794871795;156.0;1.04;225.0;-0.2633757114236371;0.14938226183244774;112.0;113.0;-0.19112663071424657;-0.4671658962729571;1.0030537504754111;-0.37095443724757865;-0.16516407279886114;0.375;0.48;0.5;0.52;0.84;0.0
159.0;0.9695121951219512;164.0;0.9647058823529412;170.0;1.0240963855421688;166.0;1.070967741935484;160.0;0.9815950920245399;163.0;1.044871794871795;156.0;1.04;150.0;1.0067114093959733;225.0;-0.1925616163487131;0.1603994644324434;113.0;112.0;-0.0678669520304875;-0.401524105834153;1.0705975627480582;-0.33013725536305566;-0.15273956194855018;0.39;0.485;0.51;0.525;0.835;0.0
164.0;0.9647058823529412;170.0;1.0240963855421688;166.0;1.070967741935484;155.0;1.0402684563758389;163.0;1.044871794871795;156.0;1.04;150.0;1.0067114093959733;149.0;0.93125;226.0;-0.19916628151919813;0.16167087070794714;112.0;114.0;-0.07533010034185346;-0.4015683835516353;1.1261295104370883;-0.3395447474359971;-0.2002233329639666;0.38;0.475;0.5;0.525;0.84;0.0
170.0;1.0240963855421688;166.0;1.070967741935484;155.0;1.0402684563758389;149.0;0.9933333333333333;156.0;1.04;150.0;1.0067114093959733;149.0;0.93125;160.0;1.0256410256410255;223.0;-0.2510820450714762;0.17353177345769444;114.0;109.0;-0.13676517092563634;-0.451009025414163;1.0784356332952378;-0.39604844382461885;-0.23636533743593605;0.345;0.485;0.515;0.535;0.86;0.0
166.0;1.070967741935484;155.0;1.0402684563758389;149.0;0.9933333333333333;150.0;0.967741935483871;150.0;1.0067114093959733;149.0;0.93125;160.0;1.0256410256410255;156.0;0.9512195121951219;214.0;-0.27129863608285304;0.21072364265109664;109.0;105.0;-0.1500736809040031;-0.5121685593300533;1.2627077020078088;-0.34149847290771174;-0.26029513413021765;0.355;0.485;0.515;0.54;0.845;0.0
155.0;1.0402684563758389;149.0;0.9933333333333333;150.0;0.967741935483871;155.0;0.96875;149.0;0.93125;160.0;1.0256410256410255;156.0;0.9512195121951219;164.0;1.0123456790123457;209.0;-0.2992987652763289;0.16198275407729573;105.0;104.0;-0.1567225330388522;-0.542823877047812;1.0321626452781516;-0.37782640602596573;-0.24856066751243744;0.375;0.48;0.505;0.525;0.83;0.0
149.0;0.9933333333333333;150.0;0.967741935483871;155.0;0.96875;160.0;0.9876543209876543;160.0;1.0256410256410255;156.0;0.9512195121951219;164.0;1.0123456790123457;162.0;1.0125;216.0;-0.2934042492381057;0.15443929806942408;104.0;112.0;-0.14869537170509065;-0.5098878556501925;0.9326332293624957;-0.43282075143630017;-0.25237433731327086;0.365;0.46;0.485;0.505;0.82;0.0
150.0;0.967741935483871;155.0;0.96875;160.0;0.9876543209876543;162.0;1.0125;156.0;0.9512195121951219;164.0;1.0123456790123457;162.0;1.0125;160.0;1.0596026490066226;221.0;-0.26282710410914517;0.16226203899655203;112.0;109.0;-0.17219236254526174;-0.4837823495842414;1.0604594831581802;-0.3725712578593156;-0.17510929475325812;0.38;0.485;0.51;0.53;0.84;0.0
155.0;0.96875;160.0;0.9876543209876543;162.0;1.0125;160.0;0.9815950920245399;164.0;1.0123456790123457;162.0;1.0125;160.0;1.0596026490066226;151.0;0.967948717948718;223.0;-0.20070414005414278;0.1766042082332872;109.0;114.0;-0.057558451417180544;-0.40161615453691957;1.1518526746765858;-0.3655831273999379;-0.14955298325644234;0.37;0.47;0.495;0.515;0.82;0.0
160.0;0.9876543209876543;162.0;1.0125;160.0;0.9815950920245399;163.0;1.044871794871795;162.0;1.0125;160.0;1.0596026490066226;151.0;0.967948717948718;156.0;0.975;227.0;-0.2070525604683317;0.1685361063723358;114.0;113.0;-0.04436865972044117;-0.44973258601819827;1.1641666380135856;-0.3376466309174761;-0.18799721696344707;0.38;0.48;0.505;0.525;0.84;0.0
162.0;1.0125;160.0;0.9815950920245399;163.0;1.044871794871795;156.0;1.04;160.0;1.0596026490066226;151.0;0.967948717948718;156.0;0.975;160.0;1.019108280254777;225.0;-0.27066168868736257;0.1571093920460173;113.0;112.0;-0.14997988466334192;-0.5026081335894189;0.9710201120796065;-0.43413603598444395;-0.24509868518705236;0.365;0.48;0.505;0.525;0.835;0.0
160.0;0.9815950920245399;163.0;1.044871794871795;156.0;1.04;150.0;1.0067114093959733;151.0;0.967948717948718;156.0;0.975;160.0;1.019108280254777;157.0;0.9631901840490797;217.0;-0.2849450531977629;0.1606425588843298;112.0;105.0;-0.1250457605784771;-0.5020592988802943;0.9603465699689714;-0.42842249363860363;-0.24758953270222894;0.385;0.495;0.52;0.535;0.86;0.0
163.0;1.044871794871795;156.0;1.04;150.0;1.0067114093959733;149.0;0.93125;156.0;0.975;160.0;1.019108280254777;157.0;0.9631901840490797;163.0;0.9532163742690059;214.0;-0.27819199744704015;0.16580902879366227;105.0;109.0;-0.13744161398652022;-0.4827618571808836;1.04342639296344;-0.3620654298731639;-0.22590452261306534;0.36;0.47;0.495;0.515;0.84;0.0
156.0;1.04;150.0;1.0067114093959733;149.0;0.93125;160.0;1.0256410256410255;160.0;1.019108280254777;157.0;0.9631901840490797;163.0;0.9532163742690059;171.0;0.9941860465116279;221.0;-0.27304212813558576;0.14968641679384667;109.0;112.0;-0.10223342204053087;-0.5210905465823567;0.9301840478608122;-0.345668310704475;-0.241483401886672;0.37;0.47;0.495;0.515;0.83;0.0
150.0;1.0067114093959733;149.0;0.93125;160.0;1.0256410256410255;156.0;0.9512195121951219;157.0;0.9631901840490797;163.0;0.9532163742690059;171.0;0.9941860465116279;172.0;1.131578947368421;221.0;-0.30218622633911285;0.1490054617078038;112.0;109.0;-0.18942539995422775;-0.5188834971609187;0.8626864121170785;-0.4102973166028886;-0.2629183955171218;0.385;0.485;0.51;0.53;0.86;0.0
149.0;0.93125;160.0;1.0256410256410255;156.0;0.9512195121951219;164.0;1.0123456790123457;163.0;0.9532163742690059;171.0;0.9941860465116279;172.0;1.131578947368421;152.0;0.987012987012987;223.0;-0.2864845106452569;0.16690063856114246;109.0;114.0;-0.13912077946583967;-0.49430107481429875;1.0434509933476428;-0.3600152339743407;-0.25100624804074284;0.375;0.47;0.495;0.515;0.835;0.0
160.0;1.0256410256410255;156.0;0.9512195121951219;164.0;1.0123456790123457;162.0;1.0125;171.0;0.9941860465116279;172.0;1.131578947368421;152.0;0.987012987012987;154.0;0.9506172839506173;233.0;-0.2641502044354235;0.15301166355055054;114.0;119.0;-0.1318655127805024;-0.4284361855396803;1.0264472714839832;-0.3406678626167822;-0.20466813361268948;0.37;0.47;0.49;0.51;0.825;0.0
156.0;0.9512195121951219;164.0;1.0123456790123457;162.0;1.0125;160.0;1.0596026490066226;172.0;1.131578947368421;152.0;0.987012987012987;154.0;0.9506172839506173;162.0;0.9878048780487805;239.0;-0.2552374195856773;0.15649376488104125;119.0;120.0;-0.107665078733439;-0.4725808895684154;0.9518288858670219;-0.43977304414287355;-0.2255807085662746;0.38;0.475;0.5;0.525;0.82;0.0
164.0;1.0123456790123457;162.0;1.0125;160.0;1.0596026490066226;151.0;0.967948717948718;152.0;0.987012987012987;154.0;0.9506172839506173;162.0;0.9878048780487805;164.0;1.0379746835443038;226.0;-0.28023524602862193;0.15581416181103896;120.0;106.0;-0.16160248650005643;-0.4899276470749924;0.9203676951629546;-0.38240848270489053;-0.2320015345858859;0.41;0.51;0.535;0.555;0.85;0.0
162.0;1.0125;160.0;1.0596026490066226;151.0;0.967948717948718;156.0;0.975;154.0;0.9506172839506173;162.0;0.9878048780487805;164.0;1.0379746835443038;158.0;0.9461077844311377;213.0;-0.2784766017663598;0.18394474571299993;106.0;107.0;-0.12110638442949143;-0.5165601523926202;1.0826041270397604;-0.3490255122626928;-0.2797201731785362;0.36;0.47;0.5;0.525;0.84;0.0
160.0;1.0596026490066226;151.0;0.967948717948718;156.0;0.975;160.0;1.019108280254777;162.0;0.9878048780487805;164.0;1.0379746835443038;158.0;0.9461077844311377;167.0;0.9653179190751445;220.0;-0.30433109474232417;0.15942342190699993;107.0;113.0;-0.16801167103181766;-0.526006367296619;1.0227625446897775;-0.39072671414710103;-0.2601825075319795;0.36;0.465;0.49;0.51;0.815;0.0
151.0;0.967948717948718;156.0;0.975;160.0;1.019108280254777;157.0;0.9631901840490797;164.0;1.0379746835443038;158.0;0.9461077844311377;167.0;0.9653179190751445;173.0;1.0880503144654088;227.0;-0.30990893851015566;0.1725210291645861;113.0;114.0;-0.16908664026792516;-0.48622794242563383;0.9549705718351451;-0.45689446273181744;-0.2982989461097455;0.37;0.47;0.5;0.52;0.85;0.0
156.0;0.975;160.0;1.019108280254777;157.0;0.9631901840490797;163.0;0.9532163742690059;158.0;0.9461077844311377;167.0;0.9653179190751445;173.0;1.0880503144654088;159.0;1.0;224.0;-0.306210625812722;0.1661031704983449;114.0;110.0;-0.1756931167577227;-0.46515888779525894;;-0.45237101214777553;-0.3455025225121622;0.38;0.49;0.51;0.535;0.79;0.0
160.0;1.019108280254777;157.0;0.9631901840490797;163.0;0.9532163742690059;171.0;0.9941860465116279;167.0;0.9653179190751445;173.0;1.0880503144654088;159.0;1.0;159.0;1.0063291139240507;226.0;-0.3000295561170562;0.1603951348202988;110.0;116.0;-0.17521959951093904;-0.520851998568889;0.9824111545968883;-0.43078422545181316;-0.2628270918631718;0.355;0.47;0.49;0.51;0.835;0.0
157.0;0.9631901840490797;163.0;0.9532163742690059;171.0;0.9941860465116279;172.0;1.131578947368421;173.0;1.0880503144654088;159.0;1.0;159.0;1.0063291139240507;158.0;0.9693251533742331;237.0;-0.3166562351664549;0.1476573834035049;116.0;121.0;-0.1410723443113457;-0.51203305860034;0.8417349087232606;-0.45392141399564856;-0.30515075376884426;0.375;0.47;0.49;0.51;0.82;0.0
163.0;0.9532163742690059;171.0;0.9941860465116279;172.0;1.131578947368421;152.0;0.987012987012987;159.0;1.0;159.0;1.0063291139240507;158.0;0.9693251533742331;163.0;1.0316455696202531;232.0;-0.3374478179474989;0.1535630074256415;121.0;111.0;-0.24169305053252477;-0.5692559867140509;0.9322203966367242;-0.4409032266401727;-0.27841667185148444;0.395;0.5;0.525;0.545;0.87;0.0
171.0;0.9941860465116279;172.0;1.131578947368421;152.0;0.987012987012987;154.0;0.9506172839506173;159.0;1.0063291139240507;158.0;0.9693251533742331;163.0;1.0316455696202531;158.0;0.9461077844311377;222.0;-0.3054663955090034;0.17078162825737964;111.0;111.0;-0.162070153083864;-0.5357880153333181;1.091972756985647;-0.3956798242361086;-0.25864305959793255;0.37;0.475;0.5;0.52;0.845;0.0
172.0;1.131578947368421;152.0;0.987012987012987;154.0;0.9506172839506173;162.0;0.9878048780487805;158.0;0.9693251533742331;163.0;1.0316455696202531;158.0;0.9461077844311377;167.0;0.9881656804733728;221.0;-0.28711934363806174;0.14782736392441367;111.0;110.0;-0.14725905100022255;-0.5156892093563717;0.9706807968134175;-0.36726274152022703;-0.22773250263479072;0.375;0.485;0.505;0.525;0.795;0.0
152.0;0.987012987012987;154.0;0.9506172839506173;162.0;0.9878048780487805;164.0;1.0379746835443038;163.0;1.0316455696202531;158.0;0.9461077844311377;167.0;0.9881656804733728;169.0;1.0242424242424242;224.0;-0.28426854345577673;0.1478065032419475;110.0;114.0;-0.13454376067144153;-0.5146541983221403;0.9324539067312216;-0.4673401930366448;-0.25950762546936484;0.375;0.47;0.495;0.515;0.86;0.0
154.0;0.9506172839506173;162.0;0.9878048780487805;164.0;1.0379746835443038;158.0;0.9461077844311377;158.0;0.9461077844311377;167.0;0.9881656804733728;169.0;1.0242424242424242;165.0;1.1073825503355705;224.0;-0.2789512356039409;0.16016306855004597;114.0;110.0;-0.15462774130790163;-0.479777806456694;1.0081218982041427;-0.42787897703678945;-0.2304545053587589;0.38;0.485;0.51;0.53;0.835;0.0
162.0;0.9878048780487805;164.0;1.0379746835443038;158.0;0.9461077844311377;167.0;0.9653179190751445;167.0;0.9881656804733728;169.0;1.0242424242424242;165.0;1.1073825503355705;149.0;0.9612903225806452;226.0;-0.2597094347765804;0.18033600891771015;110.0;116.0;-0.11521590648342717;-0.5126314974827411;1.1188332573137905;-0.3639245957574575;-0.2357044696328926;0.36;0.465;0.49;0.515;0.85;0.0
164.0;1.0379746835443038;158.0;0.9461077844311377;167.0;0.9653179190751445;173.0;1.0880503144654088;169.0;1.0242424242424242;165.0;1.1073825503355705;149.0;0.9612903225806452;155.0;0.9810126582278481;234.0;-0.2741445570860075;0.15762902381434038;116.0;118.0;-0.14872156543537632;-0.5166585532121145;0.994567595614402;-0.34191067519195517;-0.23800660006641156;0.365;0.475;0.5;0.52;0.83;0.0
158.0;0.9461077844311377;167.0;0.9653179190751445;173.0;1.0880503144654088;159.0;1.0;165.0;1.1073825503355705;149.0;0.9612903225806452;155.0;0.9810126582278481;158.0;0.9875;233.0;-0.30840768469987706;0.14563204247611602;118.0;115.0;-0.1948176220237468;-0.5236015838836557;0.9032283525520586;-0.43254681674684026;-0.27435463467574345;0.38;0.49;0.51;0.53;0.82;0.0
167.0;0.9653179190751445;173.0;1.0880503144654088;159.0;1.0;159.0;1.0063291139240507;149.0;0.9612903225806452;155.0;0.9810126582278481;158.0;0.9875;160.0;1.0457516339869282;219.0;-0.3037355718164858;0.22471730613347213;115.0;104.0;-0.19757376248449707;-0.48698762183843364;1.1662135228035744;-0.42619144151793376;-0.27422880273924877;0.4;0.5;0.525;0.555;0.88;0.0
173.0;1.0880503144654088;159.0;1.0;159.0;1.0063291139240507;158.0;0.9693251533742331;155.0;0.9810126582278481;158.0;0.9875;160.0;1.0457516339869282;153.0;0.9272727272727272;212.0;-0.3138987617395159;0.16723807000581736;104.0;108.0;-0.13786250762260985;-0.5547144517254314;1.0635322816351829;-0.39392672222169706;-0.26987507397779537;0.365;0.47;0.495;0.515;0.83;0.0
159.0;1.0;159.0;1.0063291139240507;158.0;0.9693251533742331;163.0;1.0316455696202531;158.0;0.9875;160.0;1.0457516339869282;153.0;0.9272727272727272;165.0;0.9763313609467456;218.0;-0.2842085564654996;0.1557190379378141;108.0;110.0;-0.14922734701360674;-0.5038871030042813;1.029586797382083;-0.36917260174122135;-0.2250319584637377;0.365;0.47;0.495;0.515;0.82;0.0
159.0;1.0063291139240507;158.0;0.9693251533742331;163.0;1.0316455696202531;158.0;0.9461077844311377;160.0;1.0457516339869282;153.0;0.9272727272727272;165.0;0.9763313609467456;169.0;1.0432098765432098;222.0;-0.27803160673753213;0.15023145602980773;110.0;112.0;-0.13317807228033707;-0.5045673033824067;0.8997915323097304;-0.4022226737335518;-0.21440643781490704;0.375;0.475;0.495;0.52;0.81;0.0
158.0;0.9693251533742331;163.0;1.0316455696202531;158.0;0.9461077844311377;167.0;0.9881656804733728;153.0;0.9272727272727272;165.0;0.9763313609467456;169.0;1.0432098765432098;162.0;1.125;219.0;-0.24693657847793357;0.1636359135913817;112.0;107.0;-0.10791029968887077;-0.41593423062464274;1.0576848424197873;-0.38900642140172687;-0.18099805487265444;0.38;0.495;0.515;0.535;0.845;0.0
163.0;1.0316455696202531;158.0;0.9461077844311377;167.0;0.9881656804733728;169.0;1.0242424242424242;165.0;0.9763313609467456;169.0;1.0432098765432098;162.0;1.125;144.0;0.935064935064935;222.0;-0.2560509198179792;0.18393096537617232;107.0;115.0;-0.08473086672833885;-0.5324999264889201;1.1548847493101158;-0.35468499106711815;-0.2590347797955437;0.35;0.455;0.485;0.505;0.84;0.0
158.0;0.9461077844311377;167.0;0.9881656804733728;169.0;1.0242424242424242;165.0;1.1073825503355705;169.0;1.0432098765432098;162.0;1.125;144.0;0.935064935064935;154.0;0.9625;233.0;-0.3100381159423384;0.15203449014915338;115.0;118.0;-0.17977992067423462;-0.5391352459189;0.8864226126667945;-0.4525130289894279;-0.2731009629562015;0.365;0.475;0.495;0.515;0.83;0.0
167.0;0.9881656804733728;169.0;1.0242424242424242;165.0;1.1073825503355705;149.0;0.9612903225806452;162.0;1.125;144.0;0.935064935064935;154.0;0.9625;160.0;0.9411764705882353;231.0;-0.3413208403357793;0.15172261447091667;118.0;113.0;-0.2295937608877616;-0.5661999630985547;0.831934837782043;-0.45682508909567;-0.30472726338729406;0.385;0.49;0.515;0.535;0.865;0.0
169.0;1.0242424242424242;165.0;1.1073825503355705;149.0;0.9612903225806452;155.0;0.9810126582278481;144.0;0.935064935064935;154.0;0.9625;160.0;0.9411764705882353;170.0;1.0828025477707006;213.0;-0.28678458093120723;0.19852442235222373;113.0;100.0;-0.1405718662291346;-0.49490932060620385;1.136516623900505;-0.35954110019063484;-0.20530318688956117;0.41;0.505;0.535;0.56;0.895;0.0
165.0;1.1073825503355705;149.0;0.9612903225806452;155.0;0.9810126582278481;158.0;0.9875;154.0;0.9625;160.0;0.9411764705882353;170.0;1.0828025477707006;157.0;0.98125;207.0;-0.221767204162011;0.16949098927333445;100.0;107.0;-0.09245463744708876;-0.43783231590000676;1.1551493388182725;-0.31853493251286263;-0.16076220804278696;0.355;0.46;0.485;0.505;0.84;0.0
149.0;0.9612903225806452;155.0;0.9810126582278481;158.0;0.9875;160.0;1.0457516339869282;160.0;0.9411764705882353;170.0;1.0828025477707006;157.0;0.98125;160.0;0.9467455621301775;219.0;-0.19851800287289428;0.18941124209888657;107.0;112.0;-0.05693289577054173;-0.43832783100488765;1.2680946758237002;-0.3482904033772397;-0.16831993069282278;0.37;0.465;0.49;0.51;0.82;0.0
155.0;0.9810126582278481;158.0;0.9875;160.0;1.0457516339869282;153.0;0.9272727272727272;170.0;1.0828025477707006;157.0;0.98125;160.0;0.9467455621301775;169.0;1.0432098765432098;230.0;-0.261389413867535;0.15210284098559482;112.0;118.0;-0.12845979741552244;-0.47727318771845967;0.9779840192815626;-0.40206874613315446;-0.2480123492842088;0.36;0.47;0.49;0.51;0.79;0.0
158.0;0.9875;160.0;1.0457516339869282;153.0;0.9272727272727272;165.0;0.9763313609467456;157.0;0.98125;160.0;0.9467455621301775;169.0;1.0432098765432098;162.0;1.125;227.0;-0.2720728146570974;0.16253150163278052;118.0;109.0;-0.14971687814221624;-0.48269375092464983;1.0833563332839204;-0.375139953766066;-0.21738870357205858;0.39;0.495;0.52;0.54;0.885;0.0
160.0;1.0457516339869282;153.0;0.9272727272727272;165.0;0.9763313609467456;169.0;1.0432098765432098;160.0;0.9467455621301775;169.0;1.0432098765432098;162.0;1.125;144.0;0.96;221.0;-0.27261104316387863;0.18047353682029144;109.0;112.0;-0.11574359087444602;-0.5589653458343471;1.0647650041850167;-0.3344939415691802;-0.24832549371759965;0.355;0.47;0.5;0.52;0.835;0.0
153.0;0.9272727272727272;165.0;0.9763313609467456;169.0;1.0432098765432098;162.0;1.125;169.0;1.0432098765432098;162.0;1.125;144.0;0.96;150.0;0.9375;230.0;-0.29006319375033296;0.15894416369196734;112.0;118.0;-0.13640119703731896;-0.461466755881877;1.0392738536152504;-0.391886395432377;-0.2453504133510754;0.36;0.47;0.49;0.51;0.8;0.0
165.0;0.9763313609467456;169.0;1.0432098765432098;162.0;1.125;144.0;0.935064935064935;162.0;1.125;144.0;0.96;150.0;0.9375;160.0;0.9523809523809523;231.0;-0.3113248230993029;0.16689595134714544;118.0;113.0;-0.20384743230112615;-0.5619437333428621;0.9721737374426689;-0.4326906370005458;-0.26992202762218065;0.375;0.485;0.515;0.535;0.83;0.0
169.0;1.0432098765432098;162.0;1.125;144.0;0.935064935064935;154.0;0.9625;144.0;0.96;150.0;0.9375;160.0;0.9523809523809523;168.0;1.070063694267516;213.0;-0.27928019998892045;0.17663493075475595;113.0;100.0;-0.14246656886884046;-0.4800662996493802;1.1259192202070454;-0.41301061392317545;-0.19456087382628853;0.4;0.505;0.53;0.55;0.87;0.0
162.0;1.125;144.0;0.935064935064935;154.0;0.9625;160.0;0.9411764705882353;150.0;0.9375;160.0;0.9523809523809523;168.0;1.070063694267516;157.0;0.9751552795031055;205.0;-0.23057743610173845;0.17970570557245952;100.0;105.0;-0.06687854006820908;-0.46329279083121466;1.1473945659241807;-0.31150100884201626;-0.19371224843222473;0.36;0.46;0.49;0.515;0.85;0.0
144.0;0.935064935064935;154.0;0.9625;160.0;0.9411764705882353;170.0;1.0828025477707006;160.0;0.9523809523809523;168.0;1.070063694267516;157.0;0.9751552795031055;161.0;1.00625;217.0;-0.2416626401876754;0.1569237394910811;105.0;112.0;-0.09791050160608952;-0.449707477852417;1.042147512329434;-0.35805463691253075;-0.22357406620988968;0.355;0.465;0.485;0.505;0.84;0.0
154.0;0.9625;160.0;0.9411764705882353;170.0;1.0828025477707006;157.0;0.98125;168.0;1.070063694267516;157.0;0.9751552795031055;161.0;1.00625;160.0;1.0062893081761006;229.0;-0.29032751721970773;0.1499320492489777;112.0;117.0;-0.16226349617420086;-0.4832581981899655;0.9309588112463618;-0.4232059532930773;-0.2481536319324649;0.37;0.47;0.49;0.51;0.86;0.0
160.0;0.9411764705882353;170.0;1.0828025477707006;157.0;0.98125;160.0;0.9467455621301775;157.0;0.9751552795031055;161.0;1.00625;160.0;1.0062893081761006;159.0;1.3032786885245902;226.0;-0.270912669030058;0.17190333729332508;117.0;109.0;-0.12214922125653335;-0.44629624329669204;1.0956164822391243;-0.40736124768387766;-0.21666219482145868;0.39;0.5;0.52;0.54;0.87;0.0
170.0;1.0828025477707006;157.0;0.98125;160.0;0.9467455621301775;169.0;1.0432098765432098;161.0;1.00625;160.0;1.0062893081761006;159.0;1.3032786885245902;122.0;0.6815642458100558;221.0;-0.27501857830119136;0.17209775189509688;109.0;112.0;-0.13995651492262293;-0.4744849951436345;1.0641642971796688;-0.3462628301530171;-0.2395208999685948;0.36;0.475;0.495;0.52;0.84;0.0
157.0;0.98125;160.0;0.9467455621301775;169.0;1.0432098765432098;162.0;1.125;160.0;1.0062893081761006;159.0;1.3032786885245902;122.0;0.6815642458100558;179.0;1.084848484848485;224.0;-0.2718930569223526;0.1599916323732926;112.0;112.0;-0.11670184618268806;-0.46459064466346434;1.00038229562661;-0.34779195281866226;-0.22462551993862723;0.365;0.48;0.5;0.525;0.82;0.0
160.0;0.9467455621301775;169.0;1.0432098765432098;162.0;1.125;144.0;0.96;159.0;1.3032786885245902;122.0;0.6815642458100558;179.0;1.084848484848485;165.0;0.9763313609467456;223.0;-0.2826632407094223;0.1481533220489216;112.0;111.0;-0.1765875393984802;-0.4875435617168292;0.9288944394516263;-0.4333226256158581;-0.22886329526714982;0.335;0.485;0.505;0.525;0.825;0.0
169.0;1.0432098765432098;162.0;1.125;144.0;0.96;150.0;0.9375;122.0;0.6815642458100558;179.0;1.084848484848485;165.0;0.9763313609467456;169.0;1.0;196.0;-0.2669401451851939;0.17790569001944667;111.0;85.0;-0.15755466550205516;-0.48077499048201033;1.0267162537017445;-0.40009484117341504;-0.33138584025615603;0.415;0.54;0.565;0.595;0.65;0.0
144.0;0.96;150.0;0.9375;160.0;0.9523809523809523;168.0;1.070063694267516;165.0;0.9763313609467456;169.0;1.0;169.0;1.0180722891566265;166.0;1.070967741935484;240.0;-0.25551918438470655;0.15363463660539978;125.0;115.0;-0.11524661823561583;-0.4521037989709493;1.095756266720693;-0.33753595113134066;-0.21461882737401153;0.415;0.505;0.525;0.545;0.835;0.0
150.0;0.9375;160.0;0.9523809523809523;168.0;1.070063694267516;157.0;0.9751552795031055;169.0;1.0;169.0;1.0180722891566265;166.0;1.070967741935484;155.0;1.0264900662251655;233.0;-0.2969283407092025;0.15249898104670231;115.0;118.0;-0.1897735677929834;-0.5252460118576707;0.9350902998453563;-0.4301909806165091;-0.265;0.335;0.47;0.495;0.515;0.835;0.0
160.0;0.9523809523809523;168.0;1.070063694267516;157.0;0.9751552795031055;161.0;1.00625;169.0;1.0180722891566265;166.0;1.070967741935484;155.0;1.0264900662251655;151.0;0.967948717948718;236.0;-0.2659160146863695;0.16752949873714326;118.0;118.0;-0.16363896044000636;-0.4584468737308681;1.0785815109163517;-0.3929694970972236;-0.1804055024128253;0.385;0.48;0.505;0.52;0.815;0.0
168.0;1.070063694267516;157.0;0.9751552795031055;161.0;1.00625;160.0;1.0062893081761006;166.0;1.070967741935484;155.0;1.0264900662251655;151.0;0.967948717948718;156.0;0.9629629629629629;234.0;-0.22388957729015324;0.16822255352527152;118.0;116.0;-0.09606974777382783;-0.3915987959048226;1.1817436603253966;-0.29337977872851506;-0.19032594872031214;0.345;0.485;0.505;0.525;0.84;0.0
157.0;0.9751552795031055;161.0;1.00625;160.0;1.0062893081761006;159.0;1.3032786885245902;155.0;1.0264900662251655;151.0;0.967948717948718;156.0;0.9629629629629629;162.0;1.0;224.0;-0.24093405286277844;0.15680109607366027;116.0;108.0;-0.10013736091593471;-0.41258056011153216;1.0773086830026788;-0.33287055467606896;-0.21747980294288968;0.4;0.5;0.52;0.54;0.845;0.0
161.0;1.00625;160.0;1.0062893081761006;159.0;1.3032786885245902;122.0;0.6815642458100558;151.0;0.967948717948718;156.0;0.9629629629629629;162.0;1.0;162.0;1.0062111801242235;213.0;-0.2915051019530276;0.19964891100145252;108.0;105.0;-0.20764946604136555;-0.5284881416125062;1.112536316000802;-0.4274178654618725;-0.26552743446455407;0.35;0.48;0.505;0.535;0.875;0.0
160.0;1.0062893081761006;159.0;1.3032786885245902;122.0;0.6815642458100558;179.0;1.084848484848485;156.0;0.9629629629629629;162.0;1.0;162.0;1.0062111801242235;161.0;0.9698795180722891;214.0;-0.27635155946396234;0.18664986108394735;105.0;109.0;-0.1667547172160252;-0.4629568845660466;1.2300465335262214;-0.4384020064734555;-0.2136481023126688;0.375;0.47;0.495;0.515;0.85;0.0
159.0;1.3032786885245902;122.0;0.6815642458100558;179.0;1.084848484848485;165.0;0.9763313609467456;162.0;1.0;162.0;1.0062111801242235;161.0;0.9698795180722891;166.0;1.0375;222.0;-0.26235471350459294;0.18208606370439254;109.0;113.0;;-0.4686888674898344;1.2226108063142924;-0.4136319791227012;-0.22909479537709992;0.335;0.47;0.495;0.515;0.855;0.0
122.0;0.6815642458100558;179.0;1.084848484848485;165.0;0.9763313609467456;169.0;1.0;162.0;1.0062111801242235;161.0;0.9698795180722891;166.0;1.0375;160.0;1.0526315789473684;226.0;-0.2682039140083627;0.20682082369442215;113.0;113.0;-0.13825158125535023;-0.4973411672067829;1.2576806402829406;-0.41682710541751694;-0.26196729922912954;0.34;0.475;0.505;0.525;0.85;0.0
179.0;1.084848484848485;165.0;0.9763313609467456;169.0;1.0;169.0;1.0180722891566265;161.0;0.9698795180722891;166.0;1.0375;160.0;1.0526315789473684;152.0;0.9806451612903225;225.0;-0.33350128816960245;0.1552008055357624;113.0;112.0;-0.23027138400326458;-0.5948043465493698;0.8523778656522126;-0.4354301803024665;-0.30572928918457565;0.385;0.48;0.505;0.53;0.845;0.0
165.0;0.9763313609467456;169.0;1.0;169.0;1.0180722891566265;166.0;1.070967741935484;166.0;1.0375;160.0;1.0526315789473684;152.0;0.9806451612903225;155.0;1.0264900662251655;228.0;-0.3214825928931833;0.15987198420684948;112.0;116.0;-0.22751164917633337;-0.5181706762062934;0.9884273233721769;-0.4066313908067525;-0.24825648439588602;0.365;0.47;0.495;0.515;0.81;0.0
169.0;1.0;169.0;1.0180722891566265;166.0;1.070967741935484;155.0;1.0264900662251655;160.0;1.0526315789473684;152.0;0.9806451612903225;155.0;1.0264900662251655;151.0;0.9320987654320988;228.0;-0.2934026068457157;0.17031787186582267;116.0;112.0;-0.17296893907351268;-0.5082229085757265;1.1379934443389272;-0.3366464095748317;-0.2592349414574761;0.395;0.485;0.51;0.53;0.845;0.0
169.0;1.0180722891566265;166.0;1.070967741935484;155.0;1.0264900662251655;151.0;0.967948717948718;152.0;0.9806451612903225;155.0;1.0264900662251655;151.0;0.9320987654320988;162.0;0.9938650306748467;218.0;-0.2749027270727782;0.1644113090218035;112.0;106.0;-0.16499130468227968;-0.5215661822915506;1.0841491851714675;-0.3401467798513127;-0.2331119360712599;0.39;0.49;0.515;0.535;0.865;0.0
166.0;1.070967741935484;155.0;1.0264900662251655;151.0;0.967948717948718;156.0;0.9629629629629629;155.0;1.0264900662251655;151.0;0.9320987654320988;162.0;0.9938650306748467;163.0;0.9819277108433735;214.0;-0.27854032483249225;0.16145722394298076;106.0;108.0;-0.1787889300564505;-0.493955203070778;0.9723703430064938;-0.45472147221363807;-0.2287253457846449;0.335;0.475;0.5;0.52;0.86;0.0
155.0;1.0264900662251655;151.0;0.967948717948718;156.0;0.9629629629629629;162.0;1.0;151.0;0.9320987654320988;162.0;0.9938650306748467;163.0;0.9819277108433735;166.0;1.0375;213.0;-0.23687570247932258;0.1760573364412632;108.0;105.0;-0.11851685687605772;-0.3863046760230582;1.096930383352205;-0.2879837873038572;-0.183474829751204;0.38;0.49;0.51;0.535;0.835;0.0
151.0;0.967948717948718;156.0;0.9629629629629629;162.0;1.0;162.0;1.0062111801242235;162.0;0.9938650306748467;163.0;0.9819277108433735;166.0;1.0375;160.0;1.0;218.0;-0.22851642328673522;0.2025758601992742;105.0;113.0;-0.0935054114618539;-0.41455386467802047;1.248577216313592;-0.3064722243502348;-0.2194131717096152;0.33;0.46;0.49;0.51;0.8;0.0
156.0;0.9629629629629629;162.0;1.0;162.0;1.0062111801242235;161.0;0.9698795180722891;163.0;0.9819277108433735;166.0;1.0375;160.0;1.0;160.0;1.0526315789473684;227.0;-0.2727989396055916;0.2148312224680807;113.0;114.0;-0.13311452933855844;-0.5003410964872494;1.1346333421137154;-0.37309550889219634;-0.2919927307245914;0.37;0.465;0.5;0.525;0.855;0.0
162.0;1.0;162.0;1.0062111801242235;161.0;0.9698795180722891;166.0;1.0375;166.0;1.0375;160.0;1.0;160.0;1.0526315789473684;152.0;0.9559748427672956;230.0;-0.3464459795393984;0.15379675741833768;114.0;116.0;-0.25286366638526214;-0.5575031679520923;0.8447828847234284;-0.46321236399571875;-0.2804267030381503;0.375;0.475;0.5;0.52;0.82;0.0
162.0;1.0062111801242235;161.0;0.9698795180722891;166.0;1.0375;160.0;1.0526315789473684;160.0;1.0;160.0;1.0526315789473684;152.0;0.9559748427672956;159.0;1.0063291139240507;228.0;-0.2673450580539389;0.20806573047164112;116.0;112.0;-0.15080844154831335;-0.4829730417102972;1.2472314949196137;-0.3238474021727956;-0.20172505909247807;0.39;0.485;0.515;0.535;0.825;0.0
161.0;0.9698795180722891;166.0;1.0375;160.0;1.0526315789473684;152.0;0.9806451612903225;160.0;1.0526315789473684;152.0;0.9559748427672956;159.0;1.0063291139240507;158.0;0.9813664596273292;224.0;-0.257033958719622;0.1576324183790244;112.0;112.0;-0.13310229302258408;-0.46755675181889367;1.036833834860054;-0.3753141639688429;-0.2172974925274786;0.375;0.48;0.5;0.52;0.805;0.0
166.0;1.0375;160.0;1.0526315789473684;152.0;0.9806451612903225;155.0;1.0264900662251655;152.0;0.9559748427672956;159.0;1.0063291139240507;158.0;0.9813664596273292;161.0;0.9757575757575757;218.0;-0.2896655682768177;0.14405691927293898;112.0;106.0;-0.15371644604470103;-0.5074924592371651;0.8863680732732442;-0.3736955120447908;-0.27999649880071903;0.39;0.495;0.515;0.535;0.81;0.0
160.0;1.0526315789473684;152.0;0.9806451612903225;155.0;1.0264900662251655;151.0;0.9320987654320988;159.0;1.0063291139240507;158.0;0.9813664596273292;161.0;0.9757575757575757;165.0;0.9880239520958084;217.0;-0.3459099085939834;0.14836815914152182;106.0;111.0;-0.2793467336683417;-0.6026551829737279;0.781758053088353;-0.44320901239009164;-0.29232730455842226;0.355;0.465;0.49;0.515;0.795;0.0
